ID_lab;Genotype;DM;Wab_20;Wab_30;OCT;Initial_Gradient;Max_force;Dist_at_Max_force;Area_under_curve;Linear_Distance;End_force;Ratio_End_force_Max_force;400;402;404;406;408;410;412;414;416;418;420;422;424;426;428;430;432;434;436;438;440;442;444;446;448;450;452;454;456;458;460;462;464;466;468;470;472;474;476;478;480;482;484;486;488;490;492;494;496;498;500;502;504;506;508;510;512;514;516;518;520;522;524;526;528;530;532;534;536;538;540;542;544;546;548;550;552;554;556;558;560;562;564;566;568;570;572;574;576;578;580;582;584;586;588;590;592;594;596;598;600;602;604;606;608;610;612;614;616;618;620;622;624;626;628;630;632;634;636;638;640;642;644;646;648;650;652;654;656;658;660;662;664;666;668;670;672;674;676;678;680;682;684;686;688;690;692;694;696;698;700;702;704;706;708;710;712;714;716;718;720;722;724;726;728;730;732;734;736;738;740;742;744;746;748;750;752;754;756;758;760;762;764;766;768;770;772;774;776;778;780;782;784;786;788;790;792;794;796;798;800;802;804;806;808;810;812;814;816;818;820;822;824;826;828;830;832;834;836;838;840;842;844;846;848;850;852;854;856;858;860;862;864;866;868;870;872;874;876;878;880;882;884;886;888;890;892;894;896;898;900;902;904;906;908;910;912;914;916;918;920;922;924;926;928;930;932;934;936;938;940;942;944;946;948;950;952;954;956;958;960;962;964;966;968;970;972;974;976;978;980;982;984;986;988;990;992;994;996;998;1000;1002;1004;1006;1008;1010;1012;1014;1016;1018;1020;1022;1024;1026;1028;1030;1032;1034;1036;1038;1040;1042;1044;1046;1048;1050;1052;1054;1056;1058;1060;1062;1064;1066;1068;1070;1072;1074;1076;1078;1080;1082;1084;1086;1088;1090;1092;1094;1096;1098;1100;1102;1104;1106;1108;1110;1112;1114;1116;1118;1120;1122;1124;1126;1128;1130;1132;1134;1136;1138;1140;1142;1144;1146;1148;1150;1152;1154;1156;1158;1160;1162;1164;1166;1168;1170;1172;1174;1176;1178;1180;1182;1184;1186;1188;1190;1192;1194;1196;1198;1200;1202;1204;1206;1208;1210;1212;1214;1216;1218;1220;1222;1224;1226;1228;1230;1232;1234;1236;1238;1240;1242;1244;1246;1248;1250;1252;1254;1256;1258;1260;1262;1264;1266;1268;1270;1272;1274;1276;1278;1280;1282;1284;1286;1288;1290;1292;1294;1296;1298;1300;1302;1304;1306;1308;1310;1312;1314;1316;1318;1320;1322;1324;1326;1328;1330;1332;1334;1336;1338;1340;1342;1344;1346;1348;1350;1352;1354;1356;1358;1360;1362;1364;1366;1368;1370;1372;1374;1376;1378;1380;1382;1384;1386;1388;1390;1392;1394;1396;1398;1400;1402;1404;1406;1408;1410;1412;1414;1416;1418;1420;1422;1424;1426;1428;1430;1432;1434;1436;1438;1440;1442;1444;1446;1448;1450;1452;1454;1456;1458;1460;1462;1464;1466;1468;1470;1472;1474;1476;1478;1480;1482;1484;1486;1488;1490;1492;1494;1496;1498;1500;1502;1504;1506;1508;1510;1512;1514;1516;1518;1520;1522;1524;1526;1528;1530;1532;1534;1536;1538;1540;1542;1544;1546;1548;1550;1552;1554;1556;1558;1560;1562;1564;1566;1568;1570;1572;1574;1576;1578;1580;1582;1584;1586;1588;1590;1592;1594;1596;1598;1600;1602;1604;1606;1608;1610;1612;1614;1616;1618;1620;1622;1624;1626;1628;1630;1632;1634;1636;1638;1640;1642;1644;1646;1648;1650;1652;1654;1656;1658;1660;1662;1664;1666;1668;1670;1672;1674;1676;1678;1680;1682;1684;1686;1688;1690;1692;1694;1696;1698;1700;1702;1704;1706;1708;1710;1712;1714;1716;1718;1720;1722;1724;1726;1728;1730;1732;1734;1736;1738;1740;1742;1744;1746;1748;1750;1752;1754;1756;1758;1760;1762;1764;1766;1768;1770;1772;1774;1776;1778;1780;1782;1784;1786;1788;1790;1792;1794;1796;1798;1800;1802;1804;1806;1808;1810;1812;1814;1816;1818;1820;1822;1824;1826;1828;1830;1832;1834;1836;1838;1840;1842;1844;1846;1848;1850;1852;1854;1856;1858;1860;1862;1864;1866;1868;1870;1872;1874;1876;1878;1880;1882;1884;1886;1888;1890;1892;1894;1896;1898;1900;1902;1904;1906;1908;1910;1912;1914;1916;1918;1920;1922;1924;1926;1928;1930;1932;1934;1936;1938;1940;1942;1944;1946;1948;1950;1952;1954;1956;1958;1960;1962;1964;1966;1968;1970;1972;1974;1976;1978;1980;1982;1984;1986;1988;1990;1992;1994;1996;1998;2000;2002;2004;2006;2008;2010;2012;2014;2016;2018;2020;2022;2024;2026;2028;2030;2032;2034;2036;2038;2040;2042;2044;2046;2048;2050;2052;2054;2056;2058;2060;2062;2064;2066;2068;2070;2072;2074;2076;2078;2080;2082;2084;2086;2088;2090;2092;2094;2096;2098;2100;2102;2104;2106;2108;2110;2112;2114;2116;2118;2120;2122;2124;2126;2128;2130;2132;2134;2136;2138;2140;2142;2144;2146;2148;2150;2152;2154;2156;2158;2160;2162;2164;2166;2168;2170;2172;2174;2176;2178;2180;2182;2184;2186;2188;2190;2192;2194;2196;2198;2200;2202;2204;2206;2208;2210;2212;2214;2216;2218;2220;2222;2224;2226;2228;2230;2232;2234;2236;2238;2240;2242;2244;2246;2248;2250;2252;2254;2256;2258;2260;2262;2264;2266;2268;2270;2272;2274;2276;2278;2280;2282;2284;2286;2288;2290;2292;2294;2296;2298;2300;2302;2304;2306;2308;2310;2312;2314;2316;2318;2320;2322;2324;2326;2328;2330;2332;2334;2336;2338;2340;2342;2344;2346;2348;2350;2352;2354;2356;2358;2360;2362;2364;2366;2368;2370;2372;2374;2376;2378;2380;2382;2384;2386;2388;2390;2392;2394;2396;2398;2400;2402;2404;2406;2408;2410;2412;2414;2416;2418;2420;2422;2424;2426;2428;2430;2432;2434;2436;2438;2440;2442;2444;2446;2448;2450;2452;2454;2456;2458;2460;2462;2464;2466;2468;2470;2472;2474;2476;2478;2480;2482;2484;2486;2488;2490;2492;2494;2496;2498
201903CQQU1_ciat_0002_1_20-02_CM2766-5;CM2766-5;41.8;10;15.6;28.1;1208.2;23281.8;19.4;251766.5;25221.1;22977.3;98.9;0.2853119;0.2856831;0.2862218;0.2869784;0.287924;0.2890529;0.2903164;0.2916023;0.2928154;0.2938864;0.2946836;0.2949809;0.2945747;0.2933847;0.2914474;0.2888335;0.2856278;0.2819408;0.2779289;0.2737525;0.269542;0.2654822;0.2617044;0.2581912;0.2549003;0.2517675;0.2487677;0.2458921;0.2431057;0.2403555;0.2376158;0.2349673;0.2324424;0.230068;0.2278783;0.2259161;0.2242087;0.2227354;0.2213534;0.2199805;0.2185362;0.2169802;0.215249;0.2132721;0.210974;0.2083881;0.2055596;0.202549;0.1994106;0.1962108;0.1929395;0.1896481;0.1863902;0.1832233;0.1801802;0.1772763;0.1745526;0.1720282;0.1697533;0.167743;0.1659896;0.1644726;0.1631686;0.1620451;0.1610653;0.1601931;0.159405;0.1586812;0.1580114;0.1573881;0.1568165;0.1563046;0.1558661;0.1555028;0.1552029;0.1549353;0.1546544;0.1543093;0.1538596;0.1532739;0.1525315;0.1516169;0.1505341;0.1493059;0.1479738;0.1465883;0.1452139;0.1439012;0.1426766;0.1415409;0.1404976;0.1395369;0.1386338;0.1378082;0.1370577;0.1363539;0.135701;0.1350915;0.1344951;0.1338958;0.1332829;0.1326203;0.131887;0.1310736;0.130197;0.1292852;0.1283677;0.1274799;0.1266529;0.1259102;0.1252649;0.1247082;0.1242307;0.123827;0.1234728;0.1231572;0.1228709;0.1226062;0.1223614;0.1221355;0.1219207;0.1217142;0.1215095;0.1213038;0.1210924;0.1208802;0.1206711;0.1204679;0.1202684;0.1200643;0.1198511;0.119623;0.1193862;0.1191387;0.1188779;0.118604;0.1183184;0.1180373;0.1177596;0.1174876;0.1172189;0.1169567;0.1167082;0.1164752;0.1162611;0.1160696;0.1159004;0.1157531;0.1156322;0.1155365;0.1154664;0.1154238;0.1154089;0.1154257;0.1154746;0.1155592;0.1156831;0.1158492;0.1160677;0.1163344;0.1166506;0.1170218;0.1174538;0.1179549;0.1185215;0.1191417;0.1197922;0.1204404;0.1210472;0.1215852;0.1220419;0.1224115;0.1227019;0.1229282;0.1231029;0.1232358;0.1233329;0.1234008;0.1234374;0.12344;0.1234014;0.1233216;0.1232091;0.1230684;0.1229081;0.1227359;0.1225533;0.1223594;0.1221545;0.1219439;0.1217311;0.1215194;0.1213124;0.1211113;0.1209148;0.1207227;0.1205332;0.1203495;0.1201748;0.1200116;0.1198641;0.1197363;0.1196367;0.1195716;0.1195482;0.1195706;0.1196408;0.1197656;0.1199549;0.1202171;0.1205625;0.1210013;0.1215389;0.1221652;0.1228567;0.1235742;0.1242674;0.1248935;0.1254197;0.1258481;0.1261926;0.12647;0.126701;0.126906;0.1270958;0.1272762;0.1274539;0.127629;0.1278093;0.1280057;0.1282218;0.1284601;0.1287204;0.1290193;0.1293639;0.1297695;0.1302369;0.1307548;0.1313246;0.1319522;0.1326343;0.1333693;0.1341497;0.1349704;0.1358279;0.136718;0.137643;0.1386005;0.1395883;0.1406046;0.1416482;0.1427192;0.1438188;0.144944;0.1460936;0.1472718;0.1484872;0.1497525;0.1510894;0.1525208;0.1540744;0.1557792;0.1576642;0.1597516;0.1620557;0.1645879;0.1673532;0.170353;0.1735923;0.1770902;0.1808842;0.1850254;0.1895629;0.1945248;0.1998934;0.2055791;0.211412;0.2171602;0.2225782;0.2274565;0.2316771;0.2352192;0.2381409;0.2405471;0.2425431;0.2442129;0.2456054;0.2467404;0.2476148;0.2482164;0.248541;0.2485827;0.2483482;0.2478518;0.2471143;0.2461589;0.2450101;0.2436827;0.2421978;0.2405709;0.238815;0.2369442;0.2349691;0.2329029;0.2307557;0.228542;0.2262748;0.2239672;0.2216293;0.2192732;0.216907;0.2145428;0.2121895;0.2098561;0.2075528;0.2052901;0.2030805;0.2009339;0.1988559;0.1968552;0.1949371;0.1931109;0.1913801;0.1897509;0.1882266;0.1868039;0.1854821;0.1842612;0.1831421;0.1821231;0.181203;0.1803844;0.1796708;0.1790686;0.1785865;0.1782304;0.1780019;0.1778995;0.1779258;0.1780767;0.17834;0.1787096;0.1791829;0.1797796;0.1805046;0.1813518;0.1823053;0.183343;0.1844393;0.1855687;0.18887;0.1901149;0.1914062;0.1927448;0.1941459;0.1955803;0.1969975;0.1984184;0.1999617;0.2017556;0.2038989;0.2065021;0.2097297;0.2137779;0.2187907;0.2248192;0.2318765;0.2399808;0.2490981;0.2590869;0.2697152;0.2806959;0.2917122;0.3024387;0.3125767;0.3218983;0.3302524;0.3375654;0.343845;0.349172;0.3536749;0.3574931;0.360759;0.363602;0.3661448;0.3684815;0.3706742;0.37277;0.3748129;0.3768412;0.3788719;0.3809065;0.382932;0.3849123;0.3868009;0.3885422;0.390078;0.3913602;0.3923415;0.3929874;0.3932849;0.39324;0.3928727;0.3922087;0.3912749;0.3900937;0.3886977;0.3871313;0.3854374;0.383658;0.3818306;0.3799911;0.3781692;0.3763849;0.3746469;0.3729608;0.3713401;0.3697972;0.3683385;0.3669761;0.3657171;0.3645574;0.3634954;0.3625272;0.3616454;0.3608435;0.3601159;0.3594646;0.3588962;0.3584127;0.358013;0.357701;0.3574804;0.3573541;0.3573319;0.3574262;0.3576412;0.3579805;0.3584539;0.3590769;0.3598567;0.3608005;0.361918;0.3632212;0.364724;0.3664317;0.3683521;0.370499;0.3728865;0.3755276;0.3784287;0.3816037;0.3850722;0.3888496;0.3929423;0.3973518;0.4020864;0.4071546;0.4125546;0.4182795;0.4243246;0.4306828;0.4373342;0.4442471;0.4513796;0.4586736;0.4660772;0.4735352;0.4809884;0.4883842;0.4956689;0.5027944;0.5097221;0.5164291;0.5229176;0.5292147;0.5353703;0.5414494;0.5475297;0.5537061;0.5600934;0.5668223;0.5740422;0.5819026;0.5905402;0.6000955;0.6107486;0.6227748;0.6365563;0.6525065;0.6709289;0.6918826;0.7151694;0.7404702;0.7675049;0.7960571;0.8258764;0.8565865;0.8876795;0.9185838;0.9487773;0.9778631;1.0055503;1.0316224;1.0559456;1.0784664;1.0991827;1.1181359;1.1354266;1.1511891;1.165544;1.1785839;1.1903915;1.2010444;1.2106125;1.2191675;1.2267752;1.2334719;1.2392786;1.2442417;1.2484331;1.2519279;1.2547882;1.257075;1.2588599;1.2602003;1.2611167;1.2615837;1.2615469;1.2609499;1.2597318;1.2578299;1.2552059;1.2518525;1.2477956;1.2430929;1.237805;1.2319837;1.2256818;1.2189667;1.2119305;1.204658;1.1971955;1.189553;1.181735;1.1737591;1.1656525;1.1574657;1.1492465;1.1410146;1.1327819;1.1245685;1.1163951;1.1082845;1.1002641;1.0923561;1.0845814;1.0769539;1.0694723;1.0621308;1.0549388;1.0479214;1.0410907;1.0344373;1.0279562;1.0216534;1.0155219;1.0095572;1.0037675;0.9981492;0.9926872;0.9873707;0.982188;0.9771292;0.9721974;0.9673922;0.9626957;0.9580829;0.9535472;0.9490937;0.9447183;0.9404184;0.9361967;0.9320334;0.9279023;0.9238079;0.919759;0.9157466;0.9117548;0.9077623;0.9037542;0.8997221;0.8956584;0.8915631;0.887435;0.8832773;0.8790909;0.8748807;0.8706511;0.8664039;0.8621538;0.8579187;0.8536971;0.8494809;0.8452759;0.8410997;0.8369735;0.8329269;0.8290045;0.8252332;0.821606;0.81811;0.8147211;0.8114175;0.808188;0.8050203;0.8019197;0.7988942;0.7959434;0.7930676;0.7902709;0.7875566;0.7849365;0.7824203;0.7800052;0.7776814;0.7754409;0.7732878;0.7712376;0.7693119;0.7675307;0.7659166;0.7644938;0.7632874;0.7623267;0.7616382;0.7612505;0.7612041;0.7615479;0.762321;0.7635407;0.7651948;0.7672399;0.769613;0.7722207;0.7749507;0.7776899;0.7803242;0.7827421;0.7848549;0.7866179;0.7880344;0.789134;0.7899795;0.7906836;0.7913808;0.7921788;0.7931592;0.7943695;0.7958199;0.7975161;0.7994652;0.8016847;0.8042041;0.8070389;0.8101813;0.8136145;0.8173165;0.8212703;0.8254482;0.8297879;0.8342139;0.838655;0.8430291;0.8472673;0.8513313;0.8552147;0.858955;0.8626029;0.8662068;0.8698122;0.8734471;0.8770988;0.88072;0.8842417;0.8875768;0.8906103;0.8932301;0.8953541;0.8969434;0.8980041;0.8985695;0.8986838;0.8983823;0.8977098;0.8967371;0.8955415;0.8941865;0.8927281;0.8912166;0.8896962;0.8882171;0.8868285;0.8855692;0.8844602;0.8835043;0.882679;0.8819563;0.8813229;0.8807744;0.8803154;0.8799592;0.8797242;0.8796264;0.8796922;0.8799617;0.8804878;0.8813424;0.8825976;0.8843233;0.8866082;0.8895676;0.8933344;0.8980572;0.9038681;0.9108827;0.9192733;0.9292819;0.9411099;0.9547934;0.9702458;0.9874907;1.0069013;1.0292103;1.0552137;1.0852914;1.1191251;1.1559335;1.1950471;1.2362893;1.2798581;1.3259308;1.374367;1.4246359;1.4758065;1.5266078;1.5756929;1.6220243;1.6651096;1.7048167;1.7409081;1.7729439;1.8006752;1.8243217;1.8444327;1.8616295;1.87638;1.8889561;1.8995786;1.9084532;1.9158492;1.9219737;1.9267867;1.9302735;1.9325128;1.9335177;1.9333833;1.9323274;1.9303546;1.9271928;1.9228294;1.9177209;1.9122572;1.9064949;1.9003541;1.8937907;1.8867704;1.8792659;1.8713453;1.8631313;1.8547237;1.8462062;1.8376464;1.8290277;1.8202329;1.8111534;1.8017926;1.7922773;1.7827058;1.7730806;1.7634315;1.7537789;1.7440724;1.7342651;1.7243994;1.7145959;1.704886;1.6952312;1.6856608;1.676239;1.6669921;1.6578971;1.648929;1.6401424;1.631673;1.623544;1.6156359;1.6078739;1.6003008;1.5930314;1.5861338;1.5795562;1.5732161;1.5670953;1.5612046;1.555537;1.5500798;1.5448637;1.5399034;1.5351815;1.530669;1.5263245;1.5221579;1.5181949;1.514436;1.5108359;1.5073869;1.5041506;1.5011119;1.4981525;1.4951876;1.4922452;1.4893854;1.486625;1.4839295;1.4812853;1.478689;1.4761026;1.4734777;1.470796;1.4681022;1.4653928;1.4625981;1.4597045;1.456753;1.4537499;1.4506562;1.4474368;1.4440887;1.4406741;1.4372094;1.4336572;1.4299955;1.4262385;1.4224062;1.4185462;1.4146473;1.4106357;1.4065183;1.40236;1.3981718;1.3938469;1.3892982;1.3845353;1.379607;1.3745694;1.3694592;1.3642898;1.3590493;1.3537111;1.3482597;1.3427114;1.3371433;1.3316288;1.326164;1.3207347;1.31534;1.3099785;1.3046765;1.2994788;1.2943668;1.2893152;1.2843403;1.2795069;1.2748352;1.2702725;1.2658092;1.2614348;1.2571094;1.2528405;1.2486849;1.2446318;1.2406592;1.2367573;1.2329444;1.2292547;1.2256936;1.222234;1.2188303;1.2154818;1.21222;1.2090781;1.2061023;1.2033447;1.2007574;1.1982667;1.1958989;1.1937537;1.1919029;1.1903477;1.1890461;1.1879983;1.1872535;1.1868584;1.1868076;1.1871121;1.1877871;1.188854;1.1903948;1.1924994;1.1951613;1.1983988;1.2023335;1.2069778;1.2122109;1.2179526;1.2242136;1.230953;1.2380574;1.2454458;1.2530541;1.2607517;1.2684094;1.2761152;1.284067;1.2923869;1.3010825;1.3100886;1.3191173;1.3277764;1.3355938;1.3419986;1.3466241;1.3494484;1.3506868;1.3507845;1.3504019;1.3502977;1.3510866;1.3531475;1.3564863;1.3608711;1.3661232;1.3720191;1.3782146;1.3843273;1.3901596;1.3955748;1.4003925;1.4045036;1.4079971;1.4109991;1.4135466;1.4157294;1.4175634;1.4190533;1.4204183;1.421894;1.4235516;1.4253776;1.4273174;1.4293067;1.4313908;1.433732;1.4363905;1.4392483;1.4421477;1.4451222;1.4482188;1.4514505;1.4549222;1.4586251;1.4625266;1.4665886;1.4706507;1.4745492;1.4782796;1.4819767;1.4856308;1.489181;1.4927714;1.4965858;1.5006794;1.5049949;1.5094923;1.5141586;1.5189859;1.5240906;1.5296209;1.5356513;1.5420763;1.5486743;1.5554185;1.5623407;1.5694351;1.5767474;1.5842004;1.5915668;1.5987599;1.6059084;1.6130453;1.6199918;1.6267467;1.6335208;1.6404555;1.647467;1.6543818;1.6612271;1.6680728;1.6751006;1.6824639;1.6900179;1.697475;1.7044945;1.7110869;1.7175944;1.724322;1.7313833;1.7385418;1.7453947;1.7518673;1.7581446;1.764502;1.7712696;1.7783465;1.7851912;1.791442;1.7969558;1.8016369;1.8057024;1.8095263;1.8134574;1.817484;1.821159;1.8242459;1.8266253;1.8281648;1.8292868;1.8307312;1.8326297
201903CQQU1_ciat_0003_1_20-02_CM5253-1;CM5253-1;39.4;2.8;6.9;37.3;1654.3;28699.9;19.3;363229.9;33386.9;28067.7;97.6;0.3153393;0.3174025;0.3196376;0.3220766;0.324668;0.3274385;0.3304077;0.3335127;0.3366815;0.3398468;0.342871;0.3455472;0.3477097;0.3492928;0.3503312;0.3508999;0.3510787;0.3509585;0.3506826;0.350391;0.3501484;0.3500425;0.3501161;0.350275;0.3503911;0.3503059;0.349917;0.3491891;0.3481116;0.3466808;0.3449346;0.3430352;0.3411127;0.3392962;0.3377051;0.3364264;0.3354797;0.3347913;0.3341319;0.3333074;0.3321065;0.3303574;0.3278942;0.3245903;0.3203601;0.3152673;0.3094165;0.3029407;0.2959663;0.2886236;0.280955;0.2730525;0.2649972;0.2568649;0.2487069;0.24057;0.2325457;0.2247193;0.2172144;0.2101178;0.2034897;0.1973712;0.1917908;0.1867526;0.1822399;0.17822;0.1746568;0.1715052;0.1687212;0.1662598;0.1640866;0.1621718;0.1605001;0.1590557;0.157818;0.1567527;0.1558138;0.1549454;0.1540938;0.1532068;0.152236;0.151136;0.1498841;0.1484841;0.1469693;0.1453923;0.1438278;0.1423419;0.1409757;0.1397377;0.13863;0.1376362;0.1367253;0.1359112;0.1351842;0.134508;0.1338823;0.1332986;0.1327274;0.1321551;0.1315761;0.1309608;0.1302932;0.1295651;0.1287911;0.127995;0.1272004;0.1264344;0.1257203;0.1250758;0.1245127;0.1240227;0.1235977;0.1232332;0.122907;0.1226113;0.1223407;0.1220895;0.1218551;0.1216354;0.1214239;0.1212198;0.1210183;0.1208171;0.1206122;0.1204084;0.1202089;0.1200174;0.119833;0.1196488;0.1194602;0.1192604;0.1190548;0.118841;0.1186165;0.1183816;0.1181377;0.1179006;0.1176684;0.1174421;0.1172182;0.1169986;0.11679;0.1165942;0.1164142;0.1162532;0.1161105;0.1159857;0.1158847;0.1158065;0.1157517;0.1157223;0.1157194;0.1157473;0.1158065;0.1159013;0.1160361;0.1162138;0.1164445;0.1167248;0.1170564;0.1174453;0.1178969;0.1184192;0.1190088;0.1196532;0.1203272;0.1209952;0.1216162;0.1221623;0.1226209;0.1229873;0.1232709;0.1234884;0.1236533;0.123775;0.12386;0.1239166;0.1239431;0.1239368;0.1238906;0.1238041;0.123684;0.1235339;0.1233626;0.1231782;0.122982;0.122773;0.1225516;0.1223232;0.1220911;0.1218586;0.1216296;0.1214058;0.1211852;0.1209672;0.1207502;0.1205372;0.1203313;0.1201351;0.119953;0.1197892;0.1196524;0.1195509;0.1194938;0.1194865;0.1195307;0.1196337;0.1198068;0.1200587;0.1203997;0.1208396;0.1213841;0.1220235;0.1227327;0.1234697;0.1241815;0.1248237;0.125363;0.1258018;0.1261548;0.1264401;0.1266791;0.126892;0.1270901;0.1272793;0.127466;0.1276504;0.1278402;0.1280456;0.12827;0.1285162;0.1287846;0.1290915;0.129444;0.1298572;0.1303328;0.1308592;0.1314371;0.1320719;0.1327601;0.1334998;0.1342831;0.1351047;0.1359609;0.1368469;0.137765;0.1387132;0.1396911;0.140697;0.1417298;0.1427907;0.1438826;0.1450046;0.1461565;0.1473441;0.1485779;0.1498727;0.1512512;0.1527385;0.1543639;0.1561573;0.1581481;0.160358;0.1628004;0.1654858;0.1684184;0.1715993;0.1750333;0.1787402;0.182759;0.1871423;0.1919398;0.1971785;0.2028365;0.2088147;0.2149299;0.2209361;0.2265755;0.231631;0.2359832;0.2396162;0.2425962;0.2450364;0.2470493;0.2487239;0.2501121;0.2512355;0.2520916;0.2526691;0.2529643;0.252972;0.252699;0.2521599;0.2513747;0.2503667;0.2491595;0.247768;0.2462129;0.2445094;0.2426706;0.2407104;0.2386401;0.2364728;0.234219;0.231893;0.2295083;0.2270783;0.2246141;0.2221288;0.219631;0.2171333;0.2146453;0.2121765;0.209738;0.2073408;0.2049979;0.2027202;0.2005136;0.1983879;0.1963491;0.1944071;0.1925658;0.1908315;0.1892081;0.1876928;0.1862855;0.1849867;0.1837981;0.1827181;0.1817458;0.1808841;0.1801369;0.1795103;0.1790123;0.1786486;0.1784212;0.1783286;0.1783739;0.1785538;0.1788578;0.1792787;0.17981;0.180466;0.1812491;0.1821541;0.1831667;0.1842664;0.1854286;0.1866276;0.1897149;0.1910303;0.1923907;0.1938009;0.1952776;0.1967889;0.1982799;0.1997719;0.2013906;0.2032701;0.2055105;0.2082253;0.2115877;0.215803;0.22102;0.2272914;0.2346303;0.2430495;0.2525054;0.2628463;0.2738285;0.2851504;0.2964823;0.3074889;0.3178652;0.3273829;0.3358968;0.3433377;0.3497152;0.3551145;0.3596726;0.3635374;0.3668461;0.3697277;0.3723015;0.374662;0.3768731;0.3789807;0.3810276;0.3830529;0.3850775;0.3871052;0.3891212;0.3910918;0.3929737;0.3947103;0.3962421;0.3975203;0.398497;0.3991407;0.3994436;0.3994145;0.3990716;0.3984367;0.3975353;0.3963887;0.3950282;0.3934986;0.3918438;0.3901054;0.3883207;0.3865246;0.3847425;0.3829894;0.3812746;0.3796094;0.3780103;0.3764865;0.375037;0.3736698;0.3723958;0.3712167;0.370132;0.3691367;0.3682258;0.3673952;0.36664;0.3659608;0.3653644;0.3648543;0.3644309;0.364098;0.3638578;0.3637124;0.3636732;0.3637558;0.3639686;0.3643187;0.3648149;0.3654693;0.3662885;0.3672808;0.3684547;0.3698194;0.3713894;0.3731724;0.3751771;0.3774148;0.3798958;0.3826328;0.3856356;0.3889207;0.3925054;0.396402;0.4006171;0.4051546;0.4100233;0.4152302;0.4207702;0.4266351;0.4328212;0.4393228;0.4461162;0.4531636;0.4604215;0.4678376;0.4753634;0.4829409;0.4905053;0.4979985;0.505364;0.5125561;0.5195401;0.5262937;0.5328187;0.5391431;0.5453194;0.5514158;0.5575132;0.5637108;0.5701286;0.5769027;0.5841875;0.592136;0.60089;0.6105984;0.6214477;0.6337155;0.6477862;0.6640768;0.6828895;0.7042726;0.7280153;0.7537884;0.7813075;0.8103536;0.8406587;0.8718146;0.9032924;0.9345114;0.9649378;0.9941781;1.0219674;1.0481136;1.0724877;1.0950334;1.1157656;1.1347558;1.1521077;1.1679282;1.1823335;1.1954415;1.2073507;1.2181365;1.2278552;1.2365562;1.2443051;1.2511671;1.2571795;1.2623749;1.2668016;1.2705156;1.2735779;1.2760615;1.2780356;1.2795417;1.2805898;1.2811682;1.2812443;1.2807586;1.2796412;1.2778373;1.2753098;1.2720402;1.2680349;1.2633317;1.2580075;1.2521621;1.2458767;1.2392097;1.2322226;1.2249696;1.2174817;1.2097809;1.2018936;1.1938475;1.1856769;1.1774287;1.1691284;1.1607833;1.1524224;1.1440878;1.1358004;1.1275685;1.1194136;1.111364;1.103442;1.0956562;1.0880094;1.0805039;1.0731444;1.065942;1.0589076;1.0520465;1.0453625;1.038859;1.0325338;1.0263708;1.0203559;1.0145004;1.0088158;1.0032848;0.9978785;0.9925871;0.9874244;0.9823958;0.97749;0.9726856;0.9679651;0.9633241;0.9587646;0.9542948;0.9499166;0.9455937;0.9412977;0.9370521;0.9328747;0.9287422;0.9246248;0.9205074;0.916388;0.9122646;0.9081256;0.9039584;0.8997573;0.8955328;0.8912879;0.8870256;0.8827548;0.878476;0.8741946;0.8699263;0.8656787;0.8614557;0.8572601;0.8530896;0.848955;0.844894;0.8409616;0.8371862;0.8335563;0.8300546;0.8266602;0.8233557;0.8201272;0.8169557;0.8138404;0.8107963;0.8078338;0.8049527;0.802158;0.7994587;0.7968631;0.7943671;0.7919614;0.7896417;0.787405;0.785254;0.7832049;0.7812805;0.7794995;0.7778839;0.7764572;0.7752353;0.7742372;0.7734933;0.7730465;0.77294;0.7732056;0.7738723;0.774966;0.7764833;0.7783793;0.7805886;0.7830248;0.7855856;0.7881655;0.7906599;0.792968;0.795;0.7966993;0.7980651;0.7991357;0.7999778;0.8006999;0.8014312;0.8022699;0.8032859;0.8045219;0.8059877;0.8076925;0.8096555;0.8119018;0.8144512;0.8173054;0.8204557;0.8238924;0.8275948;0.8315434;0.8357145;0.8400562;0.8444995;0.8489701;0.8533818;0.8576669;0.8617889;0.8657395;0.8695549;0.8732879;0.8769833;0.880675;0.8843778;0.8880759;0.891735;0.8952932;0.8986561;0.9017076;0.9043435;0.9064866;0.9081044;0.9092035;0.9098005;0.9099339;0.9096568;0.9090265;0.9081087;0.9069696;0.9056631;0.9042401;0.9027524;0.9012566;0.8998079;0.8984419;0.8971906;0.8960834;0.8951283;0.8943076;0.8936028;0.8930001;0.8924822;0.8920443;0.8917038;0.8914891;0.8914325;0.8915668;0.8919097;0.8925034;0.8934447;0.8948206;0.8966794;0.8990823;0.9021449;0.9060258;0.9109007;0.9169118;0.9241658;0.9328165;0.9430891;0.9551837;0.9691526;0.9849188;1.0025055;1.0222875;1.04498;1.071348;1.1017646;1.1359208;1.173041;1.212471;1.2540543;1.2979649;1.3442944;1.3928187;1.4429991;1.4939969;1.5446372;1.5935444;1.6395954;1.682305;1.721628;1.7574515;1.7894382;1.817271;1.8409687;1.8609858;1.8780158;1.8926778;1.9054441;1.9166105;1.9261882;1.9340935;1.9404175;1.9454421;1.9493448;1.9519751;1.953155;1.953023;1.9518801;1.9498451;1.9468111;1.9427869;1.9380958;1.933007;1.9275007;1.9214923;1.9149829;1.9080191;1.9006778;1.8930385;1.8851629;1.8770669;1.8686969;1.8600302;1.8512028;1.8423784;1.8334898;1.8243588;1.8149941;1.8055314;1.796044;1.7865288;1.7769399;1.7672508;1.757519;1.7478533;1.7383043;1.7287889;1.7192367;1.7097415;1.7003944;1.6911623;1.6820621;1.6731744;1.6645052;1.6560465;1.6478252;1.6398736;1.6321552;1.6246035;1.6172646;1.610235;1.6035113;1.5969701;1.5905676;1.5844111;1.5785621;1.5729542;1.5675359;1.5623085;1.5572765;1.5524573;1.547873;1.5435215;1.539356;1.5353048;1.5312876;1.5273252;1.523553;1.5200143;1.5166178;1.5133066;1.5100858;1.5069225;1.5038071;1.5007832;1.4978751;1.4950217;1.4921284;1.4891381;1.4860373;1.482882;1.4797519;1.476688;1.4736414;1.4705161;1.4672687;1.4638914;1.460411;1.4568646;1.453233;1.4494643;1.4456171;1.4417577;1.4378552;1.4338676;1.4298384;1.425776;1.4216182;1.4173737;1.4130936;1.4087546;1.4042368;1.3994774;1.3945289;1.3894768;1.3843634;1.379182;1.3739264;1.3686023;1.3632257;1.3578101;1.3523545;1.3468733;1.3413819;1.3358641;1.3303432;1.3248737;1.3194904;1.3141952;1.3089778;1.3038487;1.2988296;1.2939079;1.2891225;1.2844954;1.2799422;1.275436;1.271004;1.2666409;1.2623508;1.2581458;1.2540288;1.2500718;1.2462723;1.2425395;1.2388527;1.2352543;1.2317359;1.2282699;1.2249047;1.2216904;1.2186345;1.215727;1.2129519;1.2102909;1.207816;1.2056136;1.2036507;1.2018453;1.2002181;1.1988761;1.1978898;1.19722;1.1968181;1.1967163;1.1970214;1.197757;1.1988606;1.2003403;1.2023009;1.2048204;1.2079401;1.2116923;1.2160819;1.2211186;1.2267706;1.2329619;1.2395797;1.2464824;1.2535558;1.2607651;1.2681103;1.2755523;1.2831049;1.290859;1.2989057;1.3072267;1.3157996;1.3245187;1.3331116;1.3410399;1.3476162;1.3523935;1.3553133;1.356636;1.3568809;1.3567014;1.3568268;1.357851;1.3600876;1.363508;1.3679293;1.3732282;1.3791838;1.3854299;1.3915665;1.3973582;1.4026721;1.4074643;1.4117582;1.4155949;1.4189223;1.4216413;1.4238725;1.4257876;1.4275094;1.4292231;1.4310298;1.4329119;1.4348679;1.4369011;1.4389968;1.441187;1.443527;1.4460227;1.4487255;1.4517231;1.4551028;1.4587058;1.4622827;1.4658899;1.4696317;1.4735336;1.4775703;1.4816694;1.4857262;1.4895763;1.493202;1.4967734;1.5004671;1.5042903;1.5081689;1.5121908;1.5165117;1.5211782;1.5261087;1.5311843;1.53641;1.5418646;1.5477228;1.554101;1.5608121;1.5676332;1.5744689;1.5813138;1.5882413;1.5953202;1.6024517;1.6094513;1.6163824;1.623491;1.6307124;1.6378301;1.6448658;1.6518958;1.6587744;1.6653473;1.671885;1.6787374;1.6859698;1.6933856;1.7008089;1.7082362;1.7156053;1.7227883;1.7295014;1.7356796;1.7416277;1.7475958;1.7538636;1.7606103;1.7674596;1.774007;1.7803895;1.7868248;1.7932832;1.7995278;1.8051898;1.8102784;1.8153131;1.8203194;1.824688;1.8281093;1.8311088;1.8344245;1.8377697;1.8403444;1.8422335;1.8438563;1.8452061
201903CQQU1_ciat_0004_1_20-02_CM7436-7;CM7436-7;41.1;5.4;12;55.4;1517.9;33004.7;19;374948.5;39689.9;32127.9;97.2;0.3038755;0.3033838;0.3030027;0.3027894;0.3027446;0.3029253;0.3033234;0.3038177;0.3043003;0.3047276;0.3050047;0.3049027;0.3041791;0.3027208;0.3005661;0.2978082;0.2945429;0.2908724;0.2869486;0.2829412;0.2789848;0.2752503;0.2718479;0.2687466;0.2658942;0.2632033;0.260613;0.2580865;0.2555767;0.2530279;0.2504201;0.2478504;0.2453709;0.2430231;0.2408531;0.2389175;0.2372558;0.2358519;0.2345558;0.2332645;0.2318696;0.2303052;0.228487;0.226326;0.2237336;0.2207384;0.2173859;0.2137432;0.2098799;0.2058805;0.2017493;0.1975492;0.1933451;0.1892061;0.1851795;0.1812987;0.1776208;0.1741786;0.1710374;0.1682265;0.1657499;0.1635931;0.1617341;0.1601381;0.1587625;0.1575622;0.1565028;0.1555548;0.1547003;0.1539254;0.1532276;0.1526069;0.1520722;0.151623;0.1512452;0.1509059;0.1505587;0.1501504;0.1496379;0.1489899;0.148188;0.1472183;0.1460851;0.1448102;0.1434333;0.1419996;0.140567;0.1391834;0.1378778;0.1366547;0.1355189;0.1344603;0.1334558;0.1325269;0.1316723;0.130863;0.1301015;0.1293765;0.1286524;0.1279091;0.1271344;0.1262916;0.125362;0.124343;0.1232616;0.122156;0.1210633;0.1200221;0.1190631;0.118207;0.1174644;0.1168232;0.11627;0.1157952;0.1153725;0.1149919;0.1146456;0.1143266;0.1140331;0.113763;0.1135073;0.113262;0.1130222;0.1127873;0.1125527;0.1123215;0.1120953;0.1118763;0.1116622;0.1114444;0.1112178;0.1109751;0.1107211;0.1104522;0.1101653;0.1098605;0.1095389;0.1092173;0.1088945;0.1085727;0.1082502;0.1079319;0.1076257;0.1073345;0.107062;0.1068133;0.1065892;0.1063893;0.1062184;0.1060752;0.1059605;0.1058766;0.1058241;0.1058067;0.1058244;0.1058814;0.1059814;0.106127;0.1063282;0.1065813;0.1068873;0.1072521;0.1076817;0.1081844;0.108756;0.1093831;0.1100418;0.1106981;0.1113125;0.1118583;0.1123235;0.1127024;0.1130032;0.1132412;0.1134289;0.1135752;0.1136854;0.1137661;0.1138156;0.1138311;0.1138051;0.113737;0.1136342;0.1135011;0.1133466;0.1131784;0.1129977;0.1128039;0.1125984;0.1123871;0.1121732;0.1119589;0.1117471;0.111539;0.1113331;0.1111297;0.1109278;0.1107297;0.1105381;0.1103556;0.1101871;0.110038;0.1099183;0.1098353;0.1097964;0.1098057;0.1098657;0.1099837;0.1101702;0.110434;0.1107848;0.1112322;0.1117811;0.1124213;0.1131285;0.1138623;0.114572;0.1152155;0.1157606;0.1162101;0.1165782;0.1168822;0.1171421;0.117378;0.1176001;0.1178132;0.1180231;0.1182301;0.1184425;0.1186712;0.1189198;0.1191907;0.1194837;0.1198152;0.1201924;0.1206308;0.1211315;0.1216831;0.1222868;0.1229485;0.1236645;0.1244328;0.1252452;0.1260965;0.1269827;0.1278988;0.1288468;0.1298246;0.1308317;0.1318664;0.1329275;0.1340142;0.1351278;0.1362657;0.1374268;0.1386154;0.1398396;0.1411116;0.1424521;0.1438844;0.1454364;0.1471368;0.1490147;0.1510922;0.1533841;0.1559028;0.1586544;0.1616415;0.1648697;0.1683587;0.1721457;0.1762801;0.1808072;0.1857497;0.191084;0.1967157;0.2024733;0.2081284;0.2134438;0.2182212;0.2223536;0.2258286;0.2287082;0.2310963;0.2330956;0.2347865;0.2362154;0.2374009;0.2383398;0.2390204;0.2394386;0.2395878;0.2394727;0.2391053;0.2385036;0.2376882;0.2366804;0.235493;0.2341453;0.2326511;0.2310224;0.2292724;0.2274112;0.2254516;0.2234033;0.2212802;0.2190949;0.2168604;0.2145866;0.2122857;0.2099656;0.2076388;0.205315;0.2030035;0.2007145;0.1984587;0.1962491;0.1940962;0.192006;0.1899879;0.1880481;0.1861963;0.1844365;0.1827759;0.1812185;0.1797619;0.1784063;0.1771527;0.1760025;0.1749539;0.1740064;0.1731632;0.1724284;0.1718082;0.1713111;0.1709433;0.1707065;0.1705995;0.1706258;0.1707815;0.1710543;0.1714374;0.1719246;0.1725306;0.1732569;0.1740986;0.1750452;0.1760805;0.1771796;0.1783115;0.1812373;0.1824813;0.1837648;0.1850867;0.1864656;0.1878833;0.1892961;0.1907176;0.192254;0.1940275;0.1961343;0.1986834;0.2018386;0.2057948;0.2106961;0.2165952;0.2235039;0.2314322;0.2403357;0.250069;0.2604069;0.2710714;0.2817557;0.292148;0.3019674;0.3110059;0.3191289;0.3262714;0.332446;0.3377329;0.3422514;0.3461291;0.3494891;0.3524491;0.3551183;0.3575838;0.3599055;0.362125;0.3642791;0.3664023;0.3685133;0.3706156;0.3726985;0.3747309;0.3766681;0.3784527;0.3800301;0.38136;0.3823984;0.3831114;0.3834881;0.3835377;0.3832791;0.3827305;0.3819133;0.3808499;0.3795764;0.378141;0.3765844;0.3749406;0.3732429;0.3715267;0.3698207;0.3681457;0.3665136;0.3649319;0.3634127;0.3619645;0.3605885;0.359295;0.3580938;0.3569842;0.3559651;0.3550311;0.3541733;0.3533862;0.352668;0.3520234;0.3514572;0.3509678;0.3505537;0.3502209;0.3499762;0.3498236;0.3497704;0.3498269;0.3499999;0.350299;0.3507367;0.3513253;0.3520664;0.352965;0.3540345;0.35529;0.3567435;0.3583978;0.360261;0.3623456;0.364663;0.3672258;0.3700435;0.3731303;0.3765025;0.3801726;0.384147;0.3884294;0.3930281;0.3979495;0.4031902;0.4087429;0.414603;0.4207647;0.4272063;0.4338935;0.4407857;0.4478288;0.4549727;0.4621629;0.4693413;0.476457;0.4834566;0.4902896;0.496916;0.5033163;0.5095001;0.5155001;0.521366;0.5271574;0.5329465;0.5388241;0.544903;0.5513122;0.5581973;0.5657066;0.5739791;0.5831571;0.5934167;0.6050214;0.6183422;0.633788;0.6516606;0.6720161;0.6946595;0.7192785;0.7455934;0.7733866;0.8024051;0.8322606;0.8624424;0.8924047;0.9216628;0.9498568;0.976731;1.0020866;1.0257876;1.0477786;1.0680808;1.0867696;1.1039522;1.1197394;1.1342309;1.147508;1.1596373;1.170681;1.1806982;1.189743;1.1978641;1.2050955;1.211475;1.21706;1.2219059;1.2260451;1.2295043;1.2323453;1.234653;1.2364933;1.2378929;1.2388246;1.239223;1.2390087;1.2381203;1.2365457;1.2342997;1.2313737;1.2277522;1.2234578;1.218542;1.2130706;1.2071263;1.2007942;1.1941558;1.187273;1.1801763;1.1728737;1.165375;1.1576951;1.1498575;1.1419168;1.1339356;1.1259502;1.1179667;1.1099747;1.1019797;1.0940249;1.0861614;1.0784082;1.0707607;1.0632163;1.0557988;1.0485377;1.0414346;1.0344743;1.0276535;1.0209904;1.0145087;1.0082161;1.0020999;0.9961389;0.9903255;0.9846679;0.9791654;0.9738041;0.9685784;0.963488;0.9585205;0.9536628;0.948916;0.944279;0.9397384;0.935276;0.9308839;0.9265693;0.9223344;0.9181606;0.914035;0.9099628;0.9059329;0.9019229;0.8979288;0.8939512;0.8899838;0.886014;0.88202;0.8779879;0.8739216;0.8698364;0.8657302;0.8615982;0.8574504;0.8532995;0.8491509;0.8450062;0.8408649;0.8367313;0.8326199;0.8285445;0.8245187;0.8205644;0.816722;0.8130264;0.8094774;0.8060575;0.8027416;0.7995118;0.7963548;0.7932561;0.7902185;0.7872511;0.7843556;0.7815346;0.7788017;0.7761661;0.7736299;0.7711868;0.7688282;0.7665531;0.7643605;0.7622522;0.7602428;0.7583534;0.7566029;0.7550147;0.7536097;0.7524061;0.7514269;0.7506963;0.7502471;0.7501204;0.7503549;0.750984;0.752032;0.7534972;0.755335;0.7574733;0.7598273;0.7623093;0.7648234;0.7672547;0.7694856;0.7714297;0.7730467;0.7743394;0.7753342;0.7760907;0.7767209;0.7773492;0.7780752;0.77898;0.7801043;0.7814484;0.7830205;0.7848402;0.786932;0.7893151;0.7919912;0.7949548;0.7982008;0.8017128;0.8054717;0.8094524;0.8136017;0.8178452;0.8221077;0.8263056;0.8303725;0.8342795;0.838023;0.841633;0.845157;0.8486391;0.8521187;0.8556145;0.8591082;0.8625668;0.865935;0.8691185;0.8719952;0.8744568;0.8764311;0.8778894;0.8788364;0.8792906;0.8792955;0.8789066;0.878177;0.8771654;0.8759364;0.8745464;0.8730461;0.8714904;0.8699361;0.8684388;0.8670424;0.8657771;0.8646575;0.863681;0.8628246;0.8620682;0.861406;0.8608269;0.8603265;0.8599268;0.8596528;0.8595155;0.8595397;0.8597578;0.8602093;0.8609655;0.8621188;0.8637543;0.8659469;0.8687952;0.8724279;0.8769954;0.8826363;0.8894649;0.8976441;0.9073967;0.9188923;0.9321622;0.9471548;0.963915;0.9827937;1.0044894;1.0297772;1.0590127;1.0918744;1.1276188;1.1656122;1.2056978;1.248095;1.2929947;1.3402269;1.3892236;1.4391358;1.4888265;1.5369701;1.5825077;1.6249638;1.6641933;1.6999235;1.7317605;1.7595696;1.7835753;1.8041699;1.8218154;1.8370155;1.8502629;1.8618969;1.8719878;1.880536;1.8876517;1.8933489;1.8975589;1.9003832;1.9019648;1.9023515;1.901643;1.8999774;1.8973333;1.89364;1.8890687;1.8838811;1.8782289;1.872191;1.8658532;1.8592775;1.8523592;1.8449864;1.8372383;1.8292625;1.8211184;1.8127799;1.8042059;1.795372;1.7863503;1.7772453;1.7680483;1.7587392;1.7493982;1.7400908;1.7307122;1.7211637;1.711538;1.7019352;1.6923525;1.6827923;1.6733452;1.6641123;1.6550789;1.6461415;1.6372757;1.6285532;1.6199975;1.6115868;1.6033671;1.5954446;1.587818;1.5803895;1.5731385;1.5661087;1.5593266;1.5528092;1.5465739;1.5405664;1.5347118;1.5290377;1.5236537;1.5185648;1.5136662;1.5089141;1.5043362;1.4999592;1.4957561;1.4916961;1.48777;1.483979;1.480335;1.4768555;1.4735485;1.4703696;1.4672601;1.4641829;1.4611323;1.4581265;1.4551735;1.4522389;1.4492984;1.4463594;1.4434146;1.4404306;1.4373749;1.4342608;1.4311118;1.4279275;1.4246906;1.4213881;1.4180512;1.4147036;1.4113145;1.4077995;1.4041288;1.4003301;1.3964391;1.3924561;1.3884029;1.3843224;1.3802482;1.3761784;1.3720371;1.3677483;1.3632383;1.358501;1.3536222;1.3486798;1.343696;1.33863;1.3334384;1.328132;1.3227551;1.317349;1.3119359;1.3065295;1.3011174;1.2956703;1.2902354;1.2848706;1.2795558;1.2742794;1.2690831;1.2639942;1.2590516;1.254261;1.2496126;1.245077;1.2405903;1.2361562;1.2317996;1.2275023;1.2232637;1.2191217;1.2150712;1.2111225;1.2072771;1.2035189;1.1998618;1.1963168;1.1928604;1.1894889;1.1862433;1.1831203;1.180094;1.1771691;1.1743681;1.1716938;1.1691704;1.1668468;1.1647614;1.1629152;1.1612957;1.159914;1.1588379;1.1581187;1.1577415;1.1576703;1.1579373;1.1585847;1.1596332;1.1611223;1.1631138;1.1656193;1.1686569;1.1723042;1.1765857;1.181469;1.1869059;1.1928704;1.1993154;1.2061419;1.2132236;1.2204288;1.227686;1.2349948;1.2423992;1.249984;1.2579191;1.2662833;1.274989;1.2837539;1.2922101;1.2998748;1.306186;1.3107836;1.3136251;1.314941;1.3152008;1.3150203;1.3150995;1.3160143;1.3180919;1.3213439;1.3256516;1.330904;1.3368289;1.3430274;1.3490937;1.3548021;1.3600161;1.3646369;1.3686259;1.3720725;1.3750736;1.3776426;1.3798769;1.3818204;1.3834924;1.3850318;1.3865259;1.3880329;1.3897064;1.3916496;1.393801;1.3960795;1.3984811;1.4009857;1.4036494;1.4065638;1.4097695;1.413172;1.4166924;1.4203751;1.4241984;1.4281709;1.4322584;1.4363238;1.4402562;1.443996;1.4476054;1.4511945;1.454823;1.4584315;1.4620383;1.4659077;1.4701344;1.4744996;1.4788837;1.4835068;1.4886403;1.4941918;1.4999808;1.5060034;1.5122771;1.5187885;1.525481;1.5323446;1.539333;1.5463374;1.5533305;1.5602925;1.5671452;1.5738719;1.580554;1.587374;1.5943627;1.6014094;1.6085463;1.615701;1.6227527;1.6297417;1.6367471;1.6436105;1.6502041;1.6567355;1.6634212;1.6703809;1.6775686;1.6848016;1.6918976;1.6987797;1.70533;1.7113788;1.7171372;1.7231693;1.7295544;1.7357833;1.7418694;1.7480795;1.7539437;1.759161;1.7641498;1.7688115;1.7725806;1.7755128;1.7783122;1.7813694;1.7842686;1.7867106;1.7888749;1.7908721;1.7926173
201903CQQU1_ciat_0005_1_20-02_SM1127-8;SM1127-8;43.2;4.9;7.8;55.3;1119.9;18203.3;19;207524.8;19438.1;18101.1;99.3;0.2651708;0.2664412;0.2678603;0.2694737;0.271237;0.2731354;0.2751208;0.2770954;0.2790009;0.2808129;0.282425;0.2836141;0.2841709;0.2839988;0.2831095;0.2815607;0.2794406;0.276864;0.2739816;0.2709447;0.267869;0.2649151;0.2621908;0.259674;0.2573287;0.2550773;0.2528589;0.2506367;0.2483684;0.2460065;0.2435441;0.2410928;0.2387188;0.2364836;0.2344521;0.2326839;0.2312019;0.2299646;0.228796;0.2275673;0.2261419;0.2244307;0.2223409;0.2197921;0.2167164;0.2131755;0.2092607;0.2050863;0.2007598;0.1963928;0.1920072;0.1876747;0.1834585;0.1794171;0.1755802;0.1719587;0.1685861;0.1654747;0.1626703;0.1601852;0.1580116;0.15613;0.1545163;0.153135;0.1519456;0.1509059;0.1499826;0.1491459;0.1483783;0.1476686;0.147019;0.1464344;0.1459286;0.1455098;0.1451771;0.1449125;0.1446797;0.1444284;0.1441125;0.1436915;0.1431299;0.1423934;0.141469;0.1403694;0.1391342;0.1378177;0.1364929;0.1352237;0.1340512;0.1329845;0.1320272;0.1311654;0.1303715;0.1296623;0.1290305;0.1284424;0.127901;0.1274012;0.1269169;0.1264375;0.1259591;0.1254507;0.124893;0.1242747;0.1236077;0.1229129;0.1222123;0.1215332;0.1208999;0.1203303;0.119836;0.1194096;0.1190448;0.1187373;0.1184648;0.1182213;0.1180018;0.1177997;0.1176128;0.1174404;0.1172758;0.1171176;0.1169605;0.1168033;0.1166418;0.1164806;0.1163231;0.1161722;0.1160268;0.1158799;0.1157278;0.1155642;0.1153943;0.1152151;0.115023;0.1148179;0.1146009;0.1143882;0.1141777;0.1139695;0.1137593;0.1135492;0.113346;0.1131525;0.1129718;0.1128069;0.1126568;0.1125207;0.112404;0.112306;0.1122274;0.1121713;0.1121389;0.1121337;0.1121552;0.1122068;0.1122926;0.112416;0.1125869;0.112801;0.113059;0.1133663;0.1137282;0.1141523;0.1146356;0.1151669;0.1157251;0.1162803;0.1167981;0.1172553;0.1176412;0.11795;0.1181889;0.1183717;0.1185093;0.1186102;0.1186799;0.1187246;0.1187417;0.1187282;0.1186781;0.1185923;0.1184781;0.1183379;0.1181795;0.1180104;0.1178321;0.1176438;0.1174465;0.1172459;0.1170447;0.1168447;0.1166487;0.1164582;0.1162724;0.1160917;0.1159145;0.115743;0.1155794;0.1154252;0.1152836;0.1151575;0.1150552;0.1149832;0.114949;0.1149577;0.115012;0.1151179;0.1152831;0.1155139;0.1158191;0.1162075;0.1166847;0.1172426;0.1178608;0.1185045;0.1191285;0.1196947;0.1201725;0.1205638;0.120881;0.1211392;0.1213566;0.1215516;0.1217334;0.121907;0.122079;0.1222496;0.1224261;0.1226181;0.1228285;0.1230593;0.12331;0.1235964;0.1239251;0.1243104;0.1247533;0.1252428;0.1257805;0.1263721;0.1270146;0.1277071;0.128442;0.1292145;0.1300212;0.1308576;0.1317265;0.1326264;0.1335562;0.1345136;0.1354965;0.1365042;0.1375378;0.1385938;0.1396703;0.1407704;0.1419011;0.1430726;0.144304;0.1456166;0.1470366;0.1485911;0.1503086;0.152211;0.1543137;0.1566301;0.1591672;0.1619292;0.1649227;0.1681677;0.1717013;0.1755729;0.1798287;0.1844942;0.1895514;0.1949141;0.2004208;0.2058526;0.2109786;0.2156026;0.2196153;0.2229982;0.2258056;0.2281348;0.2300833;0.2317291;0.2331168;0.2342648;0.2351695;0.2358189;0.2362087;0.2363321;0.2361942;0.2358071;0.2351891;0.2343617;0.2333472;0.232159;0.2308167;0.2293344;0.2277251;0.2260018;0.2241749;0.2222565;0.2202563;0.2181886;0.2160659;0.213901;0.2117032;0.2094843;0.2072522;0.2050187;0.2027921;0.2005808;0.1983948;0.1962449;0.1941431;0.1920993;0.1901183;0.1882086;0.186375;0.1846268;0.1829675;0.1814033;0.1799376;0.1785668;0.1772907;0.1761098;0.1750254;0.1740357;0.17314;0.1723411;0.1716429;0.1710511;0.1705732;0.1702142;0.1699759;0.1698575;0.1698632;0.1699901;0.1702274;0.1705691;0.1710103;0.1715665;0.1722396;0.1730222;0.1738981;0.1748455;0.1758427;0.1768711;0.1801861;0.1813337;0.1825303;0.1837749;0.1850818;0.186424;0.1877499;0.1890751;0.1905128;0.1921861;0.1941867;0.1966207;0.1996522;0.2034734;0.2082201;0.2139365;0.2206348;0.2283352;0.2370055;0.2465106;0.25663;0.2670903;0.277594;0.2878367;0.2975356;0.3064729;0.3145045;0.3215615;0.3276564;0.3328672;0.3373085;0.3411035;0.3443758;0.347248;0.3498347;0.3522235;0.3544712;0.356623;0.358721;0.3607986;0.362869;0.3649336;0.3669809;0.3689782;0.3708841;0.3726451;0.3742027;0.3755097;0.3765175;0.3771929;0.3775284;0.3775356;0.3772332;0.3766393;0.3757768;0.3746674;0.3733428;0.3718477;0.3702282;0.368527;0.3667785;0.365015;0.3632652;0.361552;0.3598857;0.3582693;0.3567142;0.3552337;0.3538332;0.3525233;0.3513108;0.3501927;0.3491696;0.3482387;0.3473911;0.3466188;0.3459165;0.345286;0.3447316;0.3442535;0.3438516;0.3435322;0.3433005;0.3431565;0.3431066;0.3431656;0.3433444;0.3436489;0.3440821;0.3446524;0.3453679;0.3462428;0.3472906;0.3485199;0.3499401;0.3515564;0.353379;0.3554207;0.3576913;0.3602025;0.3629636;0.3659903;0.3692995;0.3729049;0.3768154;0.3810369;0.3855779;0.3904431;0.3956276;0.401124;0.4069286;0.4130373;0.4194316;0.4260761;0.4329272;0.439934;0.4470503;0.4542209;0.4613856;0.4684927;0.4754887;0.4823265;0.4889706;0.495403;0.5016299;0.5076774;0.5135864;0.5194128;0.5252348;0.5311534;0.5372802;0.5437327;0.550652;0.5581892;0.5664862;0.5756871;0.5859658;0.5975843;0.6109113;0.6263467;0.6441826;0.6644779;0.687053;0.7116191;0.7379193;0.7657441;0.7948314;0.824787;0.8551056;0.885242;0.9146972;0.9430913;0.9701624;0.9957206;1.0196259;1.041796;1.0622225;1.0809689;1.0981419;1.1138576;1.1282303;1.141358;1.1533167;1.1641693;1.1739712;1.1827674;1.1905997;1.1975181;1.2035936;1.2088954;1.213456;1.2173052;1.2204967;1.2230997;1.2251787;1.226773;1.2279031;1.2285758;1.22876;1.22838;1.2273542;1.2256372;1.2232163;1.2200851;1.2162495;1.2117497;1.2066433;1.2009875;1.19486;1.1883454;1.1815162;1.1744325;1.1671374;1.1596506;1.1519835;1.1441593;1.1362116;1.1281798;1.1200981;1.1119957;1.1038949;1.0958166;1.0877888;1.0798328;1.0719572;1.0641785;1.0565134;1.0489674;1.0415536;1.0342855;1.0271684;1.020218;1.0134494;1.0068591;1.0004354;0.9941796;0.9880992;0.9821929;0.9764565;0.9708866;0.9654717;0.9601922;0.9550363;0.9500059;0.9451069;0.940336;0.935679;0.9311189;0.9266475;0.9222591;0.9179451;0.9137031;0.9095372;0.9054339;0.9013723;0.8973511;0.893373;0.8894315;0.8855177;0.8816087;0.8776832;0.8737341;0.869759;0.8657557;0.8617212;0.857655;0.8535502;0.8494174;0.8452796;0.841141;0.8370004;0.8328635;0.8287307;0.8246055;0.8204993;0.8164213;0.812388;0.8084323;0.804599;0.8009132;0.7973641;0.7939365;0.7906172;0.7873952;0.7842524;0.7811677;0.7781454;0.775197;0.7723233;0.7695202;0.7667948;0.7641602;0.7616266;0.7591926;0.7568494;0.7545899;0.7524099;0.7503141;0.7483161;0.746434;0.7446916;0.7431195;0.7417387;0.7405621;0.7396117;0.7389148;0.7385061;0.7384259;0.7387177;0.7394175;0.7405475;0.7421044;0.7440469;0.7463076;0.7487968;0.7514115;0.7540444;0.7565835;0.7589143;0.7609464;0.7626354;0.7639822;0.7650187;0.7658091;0.7664576;0.7670901;0.7678163;0.7687234;0.7698569;0.7712212;0.7728238;0.7746768;0.7767949;0.7792022;0.7819139;0.784925;0.7882209;0.7917774;0.7955734;0.799585;0.8037597;0.8080267;0.8123131;0.8165319;0.8206131;0.8245265;0.8282743;0.8318952;0.8354371;0.8389381;0.8424292;0.8459321;0.8494438;0.8529262;0.8563052;0.859493;0.8623894;0.8648893;0.8669099;0.8684157;0.8694063;0.8698989;0.8699394;0.8695813;0.8688729;0.867871;0.8666493;0.8652813;0.8638217;0.8623073;0.8607793;0.8592926;0.8578965;0.8566331;0.8555271;0.8545688;0.853723;0.8529812;0.8523527;0.8518159;0.8513438;0.8509513;0.8506804;0.8505541;0.8505889;0.8508141;0.8512769;0.8520467;0.8532037;0.8548332;0.8570211;0.8598694;0.863507;0.8680786;0.8737119;0.8805224;0.8886772;0.8984034;0.909894;0.9232013;0.93826;0.9550971;0.9740786;0.9959084;1.0213352;1.0507264;1.0838122;1.1198747;1.1582792;1.1988668;1.2418625;1.2874651;1.3355181;1.3854383;1.4362924;1.4868784;1.5359292;1.5824529;1.6258689;1.6658754;1.7022533;1.734736;1.7631296;1.7875594;1.8084319;1.8261998;1.8412721;1.8541723;1.8654544;1.875315;1.8836422;1.8903108;1.8953155;1.898901;1.9014053;1.9028971;1.9032768;1.9025553;1.9006979;1.8975457;1.8931634;1.8879709;1.8823633;1.8764683;1.8703027;1.8638661;1.8570751;1.849849;1.842196;1.8341584;1.8258036;1.8172179;1.8084116;1.799349;1.7901229;1.7809296;1.7717755;1.7624563;1.7528498;1.743054;1.733255;1.7235038;1.7137136;1.703881;1.6941051;1.6843908;1.6746488;1.664901;1.6552819;1.6458281;1.6364753;1.6272657;1.6183286;1.6096735;1.6012295;1.5929637;1.5848897;1.5770259;1.5693858;1.5619864;1.5548211;1.5478897;1.5412455;1.5349618;1.5290076;1.5232625;1.5176642;1.5122433;1.5070361;1.5020738;1.4973633;1.4928617;1.488535;1.4843645;1.4803686;1.4765652;1.4729232;1.4693947;1.4659643;1.4626529;1.4594738;1.4564092;1.4534248;1.4505019;1.4476286;1.4447989;1.4419825;1.439151;1.4363105;1.4334534;1.4305708;1.4276712;1.4247527;1.4217527;1.4186132;1.4153566;1.4120173;1.4086277;1.4052367;1.4018538;1.3983831;1.3947599;1.3910224;1.3872416;1.3834075;1.3795147;1.3755972;1.3716284;1.3675351;1.363277;1.3588972;1.3544405;1.3499014;1.345237;1.3404059;1.3354008;1.3302553;1.325022;1.3197293;1.3143988;1.3090643;1.3037362;1.2984049;1.2930481;1.287627;1.282162;1.2767196;1.271354;1.2660834;1.2609048;1.2558107;1.250833;1.2459908;1.2413191;1.2368243;1.2324175;1.2280462;1.2237053;1.2193906;1.2151277;1.2109709;1.206929;1.2029957;1.1991477;1.1954063;1.1918106;1.1883197;1.18487;1.1814666;1.1781725;1.175012;1.1719606;1.1690098;1.1662135;1.1636066;1.1611809;1.1589124;1.1568244;1.1549766;1.1534045;1.1520984;1.1510561;1.1502893;1.1498258;1.1496861;1.149905;1.1505188;1.1515608;1.1530625;1.1550678;1.1575993;1.1606975;1.1644284;1.1687893;1.1737423;1.1792413;1.1852505;1.191725;1.1985842;1.2057227;1.2130413;1.2204795;1.2280087;1.2356395;1.243418;1.251482;1.2599621;1.2688446;1.2777879;1.2863305;1.29404;1.3004313;1.3051031;1.3079472;1.3091854;1.3093314;1.3090624;1.3090696;1.3098838;1.311872;1.315114;1.3194617;1.3247288;1.3306463;1.3368962;1.3430901;1.3488972;1.3540916;1.3586262;1.3626028;1.3661191;1.3691027;1.3714727;1.3734636;1.3753176;1.3770733;1.3787637;1.3804276;1.3821013;1.3838677;1.385782;1.3878124;1.3899434;1.3922374;1.3947377;1.3974731;1.4004381;1.4036372;1.4069684;1.4103067;1.4137511;1.4173911;1.4211967;1.4250805;1.4289747;1.4328787;1.4368242;1.4408064;1.4446417;1.4482145;1.4517148;1.4554063;1.4593616;1.4634805;1.4678106;1.4725296;1.4775652;1.4826996;1.4878836;1.4933383;1.4993395;1.505928;1.5128222;1.5196404;1.526392;1.5332825;1.5403674;1.5476668;1.5551155;1.5625627;1.5699184;1.5770633;1.5839465;1.59062;1.5972238;1.6039093;1.6106873;1.6176293;1.6248024;1.6321785;1.639454;1.6463941;1.6533513;1.6605984;1.6679382;1.6749897;1.6817055;1.6883841;1.6951064;1.7017406;1.7082443;1.7145488;1.7206905;1.7268537;1.7330134;1.7392201;1.7456175;1.751754;1.7569716;1.7613082;1.7652593;1.7694082;1.7739409;1.7781136;1.7809587;1.7825723;1.7840211;1.7859993;1.788336;1.7906222
201903CQQU1_ciat_0006_1_20-02_COL1505;COL1505;42.6;7.3;13.2;28.2;1542.2;20259;19.7;239434.6;23733.2;20161.3;99.5;0.3033121;0.3030757;0.3029762;0.3030697;0.3033424;0.303858;0.3046342;0.3055575;0.3065053;0.3074093;0.3081484;0.3084897;0.3082266;0.3072755;0.3056359;0.3033205;0.3003848;0.2969543;0.2932086;0.2893103;0.2853741;0.2815709;0.2780365;0.2747718;0.2717406;0.2688589;0.2660734;0.2633584;0.2606694;0.2579435;0.2551524;0.2523874;0.249699;0.2471313;0.244729;0.2425407;0.2406031;0.2389092;0.2373264;0.2357665;0.2341279;0.232347;0.2303434;0.2280328;0.2253271;0.2222521;0.218855;0.2152095;0.2113901;0.2074804;0.2034832;0.1994644;0.1954931;0.1916381;0.1879385;0.1844132;0.181105;0.1780339;0.1752527;0.1727791;0.1706053;0.1687079;0.1670613;0.1656334;0.1643872;0.1632838;0.1622934;0.1613901;0.16056;0.1597956;0.1591003;0.1584773;0.1579374;0.1574846;0.1571111;0.1567895;0.1564764;0.1561203;0.1556778;0.1551131;0.1543969;0.1535032;0.1524287;0.1511932;0.1498378;0.1484141;0.1469912;0.1456274;0.144357;0.1431865;0.1421212;0.1411482;0.1402394;0.1394123;0.1386623;0.1379578;0.1373006;0.1366834;0.136078;0.1354709;0.1348539;0.1341932;0.1334705;0.1326774;0.1318286;0.1309493;0.1300667;0.1292134;0.1284166;0.1276959;0.1270643;0.1265152;0.1260413;0.1256373;0.1252791;0.1249566;0.1246618;0.1243877;0.124132;0.1238944;0.1236698;0.1234572;0.1232514;0.1230499;0.1228481;0.1226502;0.1224593;0.122279;0.1221087;0.1219413;0.121772;0.1215946;0.1214152;0.1212304;0.1210361;0.120832;0.1206186;0.1204117;0.1202086;0.1200093;0.1198088;0.1196087;0.1194155;0.1192317;0.119061;0.1189069;0.1187677;0.1186419;0.1185344;0.1184446;0.1183738;0.1183243;0.1182973;0.1182968;0.1183227;0.1183777;0.1184657;0.1185902;0.1187614;0.1189752;0.1192317;0.1195361;0.1198934;0.1203116;0.1207881;0.1213126;0.1218647;0.1224148;0.1229277;0.1233795;0.1237596;0.1240625;0.124295;0.1244703;0.1245993;0.1246903;0.1247482;0.1247792;0.1247806;0.1247499;0.1246812;0.1245754;0.1244401;0.1242794;0.1241018;0.1239146;0.1237181;0.1235107;0.1232932;0.1230723;0.1228516;0.1226336;0.1224206;0.1222127;0.1220076;0.1218053;0.1216039;0.1214057;0.1212125;0.1210272;0.1208545;0.1206986;0.120568;0.1204692;0.120409;0.1203916;0.120419;0.1204983;0.1206383;0.1208454;0.1211281;0.1214951;0.1219523;0.1224917;0.1230927;0.1237201;0.1243288;0.1248801;0.1253421;0.1257167;0.1260163;0.1262564;0.1264555;0.1266317;0.1267946;0.1269493;0.1271023;0.1272539;0.1274115;0.1275852;0.1277772;0.1279899;0.1282232;0.1284931;0.1288055;0.1291746;0.1296016;0.1300753;0.1305972;0.1311733;0.1318009;0.1324791;0.1332003;0.1339596;0.1347537;0.1355787;0.1364371;0.1373264;0.1382453;0.1391916;0.1401638;0.1411616;0.1421861;0.1432341;0.1443032;0.1453966;0.1465214;0.1476886;0.1489185;0.1502334;0.1516602;0.1532269;0.1549622;0.1568883;0.1590208;0.1613728;0.1639514;0.1667599;0.1698044;0.1731051;0.1766999;0.1806397;0.1849724;0.1897264;0.1948867;0.2003682;0.2060081;0.2115828;0.2168536;0.2216153;0.2257501;0.2292343;0.2321207;0.2345083;0.2364978;0.2381702;0.2395723;0.2407229;0.2416187;0.2422473;0.242604;0.2426827;0.2424895;0.2420382;0.2413485;0.2404432;0.2393463;0.2380723;0.2366423;0.2350711;0.2333718;0.2315581;0.2296409;0.2276334;0.2255454;0.223391;0.221183;0.2189347;0.2166563;0.2143596;0.2120523;0.2097463;0.2074504;0.2051736;0.202926;0.200718;0.1985615;0.1964661;0.1944369;0.1924821;0.1906072;0.188821;0.187127;0.1855312;0.1840366;0.1826395;0.1813396;0.1801369;0.1790318;0.1780222;0.1771074;0.1762904;0.1755749;0.1749667;0.1744736;0.1741011;0.173851;0.1737221;0.1737183;0.1738376;0.1740712;0.1744138;0.1748587;0.1754178;0.1760916;0.1768748;0.1777546;0.1787124;0.1797277;0.1807798;0.1841056;0.1852823;0.1865039;0.1877708;0.1891019;0.1904733;0.1918372;0.19321;0.1947021;0.1964344;0.1984979;0.2009982;0.2041012;0.2080038;0.2128507;0.2186978;0.225562;0.2334603;0.2423598;0.2521274;0.2625431;0.2733296;0.2841765;0.2947606;0.3047844;0.3140233;0.3223272;0.3296183;0.3359003;0.3412514;0.3457948;0.3496636;0.3529876;0.3558927;0.3584971;0.360893;0.3631438;0.3652959;0.3673914;0.3694661;0.3715379;0.3736099;0.3756702;0.3776859;0.3796107;0.3813847;0.3829479;0.3842513;0.3852475;0.3859078;0.386224;0.386203;0.3858612;0.3852177;0.3842969;0.3831224;0.3817293;0.3801647;0.3784729;0.3766942;0.3748667;0.3730282;0.3712051;0.3694162;0.3676755;0.3659914;0.3643749;0.362835;0.3613734;0.3600025;0.3587348;0.3575706;0.356509;0.3555425;0.3546589;0.3538529;0.3531221;0.3524674;0.3518944;0.3514035;0.3509933;0.3506681;0.3504317;0.3502869;0.3502415;0.3503072;0.350493;0.350807;0.3512558;0.3518495;0.3525933;0.3534965;0.3545729;0.3558365;0.3573009;0.3589703;0.3608511;0.3629558;0.3652978;0.3678899;0.3707402;0.3738639;0.3772797;0.3810022;0.3850387;0.3893932;0.3940753;0.3990949;0.4044516;0.4101364;0.4161409;0.4224593;0.4290728;0.4359462;0.4430379;0.4502959;0.4576721;0.4651117;0.4725531;0.4799385;0.4872091;0.4943168;0.501227;0.5079216;0.5144027;0.5206929;0.5268366;0.5328993;0.5389646;0.5451297;0.5515021;0.5582069;0.5653949;0.57322;0.5818253;0.5913578;0.6019976;0.614014;0.6277893;0.6437423;0.6621767;0.6831542;0.7064929;0.7318956;0.7590949;0.7878798;0.8179899;0.8490208;0.8804442;0.911693;0.9422534;0.9717271;0.9998227;1.0263242;1.0510778;1.0739942;1.0950673;1.1143668;1.1320043;1.1481;1.1627555;1.176059;1.1881111;1.1990129;1.2088385;1.2176313;1.2254413;1.2323284;1.2383413;1.2435224;1.247916;1.2515732;1.2545612;1.2569724;1.2588949;1.2603743;1.2614126;1.2619731;1.2620035;1.2614522;1.2602682;1.2584071;1.2558223;1.2524877;1.2484342;1.2437205;1.2383947;1.2325082;1.226135;1.2193689;1.2122972;1.2049639;1.1973901;1.1896057;1.1816525;1.1735673;1.1653717;1.157095;1.1487683;1.1404135;1.1320581;1.1237266;1.1154308;1.1071985;1.0990694;1.0910692;1.0832042;1.0754659;1.0678589;1.0604043;1.0531206;1.0460153;1.039083;1.0323157;1.025719;1.0193083;1.0130882;1.0070517;1.001188;0.9954857;0.9899321;0.9845237;0.9792598;0.9741306;0.9691265;0.9642428;0.9594745;0.9548084;0.9502265;0.9457192;0.94129;0.9369453;0.9326794;0.9284677;0.9242934;0.9201677;0.9160943;0.9120504;0.9080174;0.9039875;0.8999503;0.8958912;0.8918049;0.8876961;0.8835619;0.8793949;0.8751824;0.8709302;0.8666667;0.8624069;0.8581447;0.8538811;0.8496252;0.8453851;0.8411712;0.8369952;0.8328688;0.828812;0.8248681;0.8210714;0.8174219;0.8139058;0.8104985;0.8071768;0.8039265;0.8007406;0.7976275;0.794589;0.7916247;0.7887431;0.7859542;0.7832544;0.7806461;0.7781351;0.7757193;0.7733997;0.7711779;0.7690505;0.7670223;0.76511;0.7633364;0.7617354;0.7603372;0.759156;0.7582071;0.7575157;0.7571246;0.7570813;0.7574191;0.7581673;0.7593588;0.7609999;0.7630434;0.7654108;0.7680091;0.7707399;0.7734934;0.7761446;0.7785747;0.7806971;0.7824652;0.7838813;0.7849874;0.7858509;0.786571;0.7872739;0.7880756;0.7890637;0.7902799;0.7917264;0.793411;0.7953506;0.7975688;0.8000897;0.8029156;0.8060374;0.8094527;0.8131436;0.8170812;0.821231;0.8255386;0.8299401;0.8343671;0.8387312;0.8429601;0.8470231;0.8509178;0.8546693;0.8583179;0.8619158;0.8655152;0.8691453;0.8727915;0.8764039;0.8799049;0.8832022;0.8861989;0.8888015;0.8909246;0.8925226;0.8935963;0.8941646;0.8942621;0.8939316;0.8932316;0.8922367;0.8910258;0.8896656;0.8882;0.8866636;0.8851084;0.8836007;0.8821845;0.880893;0.8797582;0.8787854;0.8779433;0.8772081;0.876573;0.8760251;0.8755547;0.8751701;0.8748959;0.8747569;0.8747872;0.8750252;0.8755138;0.8763281;0.877554;0.8792596;0.8815268;0.8844755;0.8882415;0.8929768;0.8988219;0.9058987;0.9143751;0.9244669;0.9363442;0.950066;0.9656168;0.9830548;1.0027251;1.0253123;1.0515907;1.0819598;1.1161463;1.1534216;1.1931617;1.2351987;1.2796764;1.3266895;1.376075;1.4273318;1.479543;1.5314078;1.5815191;1.628828;1.6728065;1.7131751;1.7497084;1.7822208;1.8105741;1.834841;1.8554394;1.8728998;1.8876648;1.900228;1.9110942;1.9205235;1.9285183;1.9349647;1.9398563;1.9433761;1.9457192;1.9469738;1.9470851;1.9460536;1.9440217;1.9409214;1.9366025;1.9313886;1.9258131;1.9200389;1.9139612;1.9074514;1.9004126;1.892874;1.8849744;1.876838;1.8685285;1.8600755;1.8515067;1.8427858;1.8338144;1.8245709;1.8151233;1.8055682;1.795956;1.7862539;1.7764492;1.7665813;1.7566745;1.7467012;1.7367198;1.7268841;1.7171901;1.7075167;1.6978488;1.688261;1.6787882;1.6694441;1.6602652;1.6512961;1.6426046;1.634201;1.6260332;1.618094;1.6103945;1.6029253;1.5956947;1.5887355;1.5820556;1.5756553;1.5695535;1.5637302;1.5581101;1.5526422;1.5473378;1.5422956;1.5375783;1.5330859;1.5287347;1.5245482;1.5205722;1.5167814;1.5130968;1.509495;1.506011;1.5026733;1.4994911;1.4964521;1.4935131;1.4906313;1.4877684;1.4849012;1.4820296;1.4791842;1.4763558;1.4734533;1.4704652;1.4674802;1.4645176;1.461518;1.4584305;1.4552509;1.4520116;1.4487154;1.4453135;1.441792;1.4381719;1.4344935;1.4307612;1.4269533;1.4230323;1.4190079;1.4149225;1.4107926;1.406607;1.4023334;1.3979602;1.3934669;1.3888507;1.3841045;1.3791952;1.374121;1.3689088;1.3635824;1.3581342;1.3525746;1.3469765;1.3414161;1.3359262;1.3304806;1.3250177;1.319544;1.3140973;1.308691;1.3033638;1.298156;1.2930474;1.2880461;1.2831421;1.2783029;1.2735399;1.2688937;1.2643991;1.2600087;1.2556677;1.2513944;1.2472115;1.2430966;1.239085;1.2351795;1.2313393;1.2275807;1.2239487;1.2204399;1.2170215;1.2137034;1.2104917;1.2073791;1.2043903;1.2015574;1.1988671;1.1963334;1.193994;1.1918728;1.1899946;1.1883869;1.1870492;1.1860037;1.1852942;1.1849468;1.1849341;1.1852345;1.1858687;1.1869154;1.1884696;1.1905873;1.193271;1.1965505;1.2004859;1.2050598;1.210219;1.2159176;1.2221359;1.2288555;1.2359936;1.2434084;1.2509673;1.2585979;1.266278;1.2740539;1.2819986;1.2902195;1.2987831;1.3076658;1.3166287;1.325313;1.3332274;1.3397632;1.3445017;1.3473845;1.3486797;1.3489029;1.3486898;1.3487499;1.3496552;1.3517218;1.3550169;1.3594959;1.3649881;1.3710814;1.3773675;1.3835484;1.3894114;1.3947271;1.3993722;1.4033778;1.4068781;1.4099762;1.4126744;1.4150329;1.4170853;1.4188585;1.4204943;1.4221368;1.4239125;1.4259365;1.4281689;1.4304482;1.4327109;1.4350384;1.4375176;1.4402329;1.4431863;1.4463643;1.4497356;1.4532504;1.4568839;1.4605768;1.4643991;1.468411;1.4725481;1.4766831;1.4806484;1.484464;1.4882929;1.4921992;1.4961178;1.5000024;1.5039459;1.5081296;1.5127113;1.5176114;1.5225654;1.5276123;1.5330501;1.5390378;1.5453991;1.5518003;1.5582154;1.5648737;1.5718704;1.578984;1.5859671;1.5929148;1.5999871;1.6070886;1.6141232;1.6211417;1.6283052;1.6356902;1.6431515;1.6504459;1.6574378;1.6643786;1.6715351;1.6789393;1.6865661;1.6942816;1.7018163;1.7089281;1.7156875;1.722266;1.7288061;1.7354114;1.7420897;1.7489181;1.7559516;1.7629943;1.7698612;1.7764971;1.7827761;1.7885718;1.793933;1.7990561;1.8042202;1.8095016;1.8142252;1.817838;1.8208777;1.8241799;1.8280364;1.8320231;1.8352822;1.8373373;1.8385122;1.8395145
201903CQQU1_ciat_0007_1_20-02_COL1736;COL1736;46.4;7.1;12.7;31.2;1090;24556.9;20;255592.6;25720.3;24530.5;99.9;0.2693263;0.2703499;0.2714843;0.2727848;0.2742445;0.2758706;0.2776057;0.2793291;0.2809533;0.2824271;0.2836402;0.2843763;0.2844173;0.2836566;0.282117;0.2798734;0.277024;0.2736934;0.2700422;0.2662207;0.2623478;0.2586136;0.2551669;0.2520024;0.2490818;0.2463468;0.2437733;0.2413386;0.238982;0.2366251;0.2342255;0.2318528;0.2295273;0.2272662;0.2251007;0.2230791;0.2212446;0.2196032;0.2180468;0.2165286;0.2149958;0.2134256;0.211761;0.2099247;0.2078214;0.205455;0.2028343;0.1999803;0.1969135;0.1936786;0.1902537;0.1866886;0.1830466;0.1794031;0.175813;0.1723163;0.168977;0.165835;0.1629599;0.1603843;0.1581153;0.156141;0.1544414;0.152985;0.151735;0.1506516;0.1497021;0.1488562;0.148096;0.1474106;0.1468001;0.1462634;0.1458059;0.1454258;0.1451095;0.1448255;0.1445301;0.1441756;0.1437247;0.1431518;0.1424406;0.1415756;0.1405589;0.1394112;0.1381692;0.1368745;0.1355832;0.1343429;0.1331822;0.1321035;0.1311093;0.1301885;0.1293189;0.1285247;0.127805;0.1271309;0.1265062;0.1259238;0.1253539;0.1247822;0.1242005;0.1235746;0.1228843;0.1221202;0.121299;0.1204487;0.119598;0.1187797;0.1180222;0.1173462;0.1167638;0.116266;0.1158427;0.1154872;0.1151759;0.1149008;0.1146553;0.1144321;0.1142288;0.1140446;0.1138724;0.1137099;0.1135519;0.1133977;0.1132435;0.1130931;0.1129486;0.1128123;0.1126818;0.1125494;0.1124104;0.1122585;0.1120994;0.1119295;0.1117451;0.1115456;0.1113318;0.1111198;0.1109073;0.1106955;0.1104806;0.1102648;0.1100554;0.1098553;0.1096683;0.1094981;0.1093448;0.1092082;0.1090935;0.1089993;0.1089261;0.108876;0.1088496;0.1088514;0.1088813;0.1089425;0.1090388;0.1091734;0.1093571;0.1095852;0.1098574;0.1101783;0.1105533;0.110991;0.1114893;0.1120376;0.1126155;0.1131944;0.1137404;0.1142309;0.1146555;0.115008;0.1152938;0.1155246;0.1157095;0.1158554;0.1159661;0.1160472;0.1160961;0.1161104;0.1160843;0.116019;0.1159222;0.1157971;0.1156523;0.115496;0.1153297;0.1151518;0.1149626;0.1147684;0.1145729;0.1143789;0.1141892;0.1140056;0.1138266;0.1136519;0.113479;0.1133097;0.1131463;0.1129922;0.1128524;0.1127302;0.1126325;0.112564;0.1125315;0.1125397;0.1125912;0.1126919;0.1128502;0.1130722;0.1133658;0.1137396;0.114199;0.1147366;0.1153334;0.1159562;0.1165622;0.1171143;0.1175821;0.1179665;0.1182787;0.1185328;0.1187461;0.1189364;0.1191136;0.1192828;0.1194506;0.1196173;0.1197908;0.1199817;0.1201927;0.1204255;0.1206796;0.1209718;0.1213088;0.1217053;0.1221622;0.1226684;0.1232262;0.1238415;0.1245115;0.1252353;0.1260059;0.126818;0.1276683;0.128552;0.129471;0.1304225;0.1314043;0.1324139;0.1334495;0.1345096;0.1355931;0.1366942;0.1378082;0.1389359;0.1400814;0.1412527;0.1424666;0.1437429;0.1451069;0.1465859;0.1482093;0.1500008;0.151978;0.1541568;0.1565468;0.1591546;0.1619879;0.1650673;0.1684291;0.1721209;0.1761878;0.1806561;0.1855127;0.1906792;0.1960056;0.2012855;0.2062989;0.2108556;0.2148462;0.2182472;0.2211048;0.2235073;0.2255453;0.2272912;0.2287861;0.2300459;0.2310655;0.2318316;0.2323385;0.2325775;0.2325525;0.2322754;0.2317643;0.2310406;0.2301266;0.2290362;0.2277891;0.2264;0.2248815;0.2232468;0.2215067;0.2196742;0.2177589;0.2157749;0.2137353;0.2116529;0.2095373;0.2073999;0.2052473;0.2030909;0.200939;0.1988001;0.196684;0.1946006;0.1925614;0.1905757;0.188649;0.1867901;0.185004;0.1832993;0.1816788;0.1801486;0.1787121;0.1773656;0.1761083;0.1749403;0.1738625;0.1728732;0.1719713;0.1711596;0.1704418;0.1698242;0.1693156;0.1689222;0.1686459;0.1684852;0.1684435;0.1685161;0.1686893;0.1689563;0.1693155;0.1697878;0.1703786;0.171083;0.1718911;0.1727878;0.1737473;0.1747356;0.1778333;0.1789263;0.1800583;0.1812331;0.1824666;0.1837337;0.1849899;0.1862548;0.187637;0.1892504;0.1911781;0.19352;0.19643;0.2000913;0.2046427;0.210138;0.2165941;0.2240323;0.2324262;0.2416543;0.2515124;0.2617376;0.2720389;0.2821218;0.2917165;0.3006148;0.3086719;0.3158051;0.3220072;0.3273443;0.331929;0.3358843;0.3393278;0.3423743;0.3451346;0.3476963;0.3501154;0.3524303;0.3546795;0.3569015;0.3591151;0.36132;0.3635013;0.3656274;0.3676566;0.3695354;0.3712054;0.3726121;0.3737035;0.374448;0.3748369;0.3748786;0.3745908;0.3739911;0.3731014;0.3719437;0.3705534;0.3689789;0.367268;0.3654672;0.3636171;0.3617541;0.3599076;0.3581009;0.3563464;0.3546523;0.3530328;0.3514981;0.3500504;0.3486992;0.3474542;0.3463175;0.3452868;0.3443516;0.3435025;0.3427336;0.3420375;0.3414105;0.3408541;0.3403719;0.3399672;0.3396436;0.3394022;0.3392406;0.3391628;0.3391811;0.3393069;0.3395497;0.3399165;0.3404162;0.3410553;0.3418457;0.3427989;0.3439261;0.345241;0.3467485;0.3484564;0.3503773;0.352522;0.3549035;0.3575334;0.3604277;0.3636037;0.3670748;0.3708479;0.3749261;0.3793195;0.3840375;0.3890779;0.3944342;0.4001034;0.4060819;0.4123504;0.4188778;0.4256236;0.4325321;0.4395554;0.446643;0.4537387;0.4607904;0.4677414;0.4745416;0.4811572;0.4875717;0.493788;0.4998275;0.5057294;0.5115488;0.5173591;0.5232517;0.5293325;0.5357187;0.5425444;0.5499495;0.5580701;0.5670452;0.5770456;0.5883284;0.6012574;0.6162412;0.6335915;0.6533818;0.6754436;0.6995003;0.7253088;0.7526827;0.7813921;0.8110707;0.8412313;0.8713371;0.900884;0.9294753;0.9568325;0.9827562;1.0070975;1.0297596;1.0507181;1.0700192;1.0877548;1.1040249;1.1189215;1.1325319;1.1449342;1.1562011;1.1664015;1.1755891;1.1838069;1.1910884;1.1974652;1.2029825;1.2076962;1.2116816;1.2150213;1.2177813;1.2200098;1.2217379;1.2229719;1.2237077;1.223945;1.223647;1.2227337;1.2211292;1.2187949;1.2157339;1.2119644;1.2075207;1.2024715;1.1968937;1.1908475;1.1843947;1.1776164;1.1705818;1.1633339;1.1558983;1.1482944;1.1405418;1.132658;1.1246707;1.1166215;1.108562;1.1005337;1.0925465;1.0845993;1.0767114;1.0689156;1.0612345;1.0536754;1.0462427;1.0389485;1.03181;1.0248468;1.0180736;1.0114805;1.0050443;0.9987664;0.9926747;0.9867791;0.9810549;0.9754828;0.9700701;0.9648255;0.959743;0.9548066;0.9499977;0.9453018;0.940711;0.9362277;0.9318489;0.9275583;0.9233449;0.9192011;0.9151193;0.9111035;0.9071436;0.9032202;0.8993311;0.8954723;0.8916353;0.8878154;0.8839959;0.8801613;0.8762993;0.8723933;0.868436;0.8644219;0.8603545;0.8562409;0.8520977;0.8479425;0.8437732;0.8395839;0.8353816;0.8311729;0.8269644;0.8227711;0.818612;0.8145079;0.8104804;0.8065603;0.802772;0.7991195;0.7955989;0.7921921;0.7888786;0.7856415;0.7824647;0.7793545;0.7763212;0.7733617;0.77047;0.7676573;0.7649374;0.7623182;0.7597984;0.7573721;0.7550373;0.7527902;0.7506348;0.7485883;0.7466654;0.7448823;0.7432696;0.7418546;0.7406571;0.7397009;0.7390093;0.7386148;0.7385668;0.7389172;0.7397038;0.7409502;0.7426552;0.7447738;0.7472352;0.74995;0.7528058;0.7556753;0.7584271;0.7609342;0.7630987;0.7648723;0.7662588;0.7672912;0.7680367;0.7686112;0.7691558;0.7697947;0.7706193;0.7716714;0.7729555;0.7744811;0.7762653;0.7783296;0.7806949;0.783371;0.7863562;0.7896436;0.7932123;0.7970337;0.8010701;0.8052614;0.809533;0.8138107;0.8180103;0.8220584;0.8259109;0.8295602;0.8330524;0.8364504;0.8398077;0.8431758;0.8465837;0.8500123;0.8534148;0.8567297;0.8598772;0.8627425;0.8651962;0.8671448;0.8685609;0.8694489;0.8698134;0.8696904;0.869145;0.8682516;0.8670854;0.8657121;0.8641852;0.8625554;0.860872;0.8591895;0.8575729;0.8560755;0.8547265;0.8535313;0.8524793;0.8515524;0.850737;0.8500246;0.8493925;0.8488176;0.8483131;0.8479155;0.8476467;0.847517;0.847543;0.8477819;0.8483313;0.8492749;0.8506694;0.852585;0.8551353;0.8584627;0.8627248;0.868053;0.8745478;0.882369;0.8917488;0.9028767;0.9158095;0.9305036;0.9469875;0.9656044;0.9870508;1.012105;1.0411639;1.073967;1.1098173;1.1481197;1.1887522;1.2319508;1.2778902;1.3264135;1.3770185;1.4288404;1.4806039;1.5308745;1.5785528;1.6230819;1.6642294;1.7017281;1.7351735;1.7643245;1.7893646;1.8107314;1.8289129;1.8444657;1.8579137;1.8695745;1.8795524;1.8878438;1.8945408;1.8998834;1.9040108;1.9068458;1.9083036;1.9084694;1.9074855;1.9053457;1.9020165;1.8977011;1.8927467;1.8873966;1.8817146;1.8756301;1.8690506;1.8619808;1.8545442;1.8468409;1.838835;1.8304361;1.8217304;1.8129491;1.8041387;1.7951223;1.7857618;1.7760988;1.7662935;1.7564232;1.7464526;1.7364286;1.7264646;1.7166052;1.7067766;1.696893;1.6869817;1.6770613;1.6671203;1.6572601;1.6476161;1.6381575;1.6287934;1.6196096;1.6107317;1.6021303;1.593724;1.585533;1.577637;1.5700601;1.5627277;1.5555636;1.5486257;1.5420079;1.5357035;1.5296613;1.5238829;1.5183811;1.513139;1.5081288;1.5033643;1.4988441;1.4945016;1.4903063;1.4862764;1.4824684;1.4788847;1.4754397;1.4721136;1.4689598;1.4659785;1.4631333;1.460397;1.4577276;1.4551003;1.4525003;1.4499161;1.4473413;1.4447985;1.4423113;1.4398373;1.4373;1.4346387;1.4318572;1.4289939;1.4260731;1.4231089;1.4200866;1.4169806;1.4137897;1.4105389;1.4072225;1.4038435;1.4003808;1.3967617;1.3929529;1.389066;1.38519;1.381274;1.3772666;1.3731662;1.3689687;1.3646239;1.3600891;1.3553439;1.3504143;1.3453934;1.3403267;1.3351543;1.3298218;1.3243656;1.3188678;1.3133712;1.307888;1.3024156;1.2969098;1.2913849;1.2858984;1.2804431;1.2750089;1.2696521;1.2644043;1.2592914;1.2543149;1.2494602;1.2447133;1.2400465;1.235485;1.2310358;1.2266512;1.2223079;1.2180223;1.2138004;1.2096722;1.2056313;1.2016655;1.1978019;1.1940658;1.190455;1.1869462;1.1835448;1.1802624;1.1770688;1.1739314;1.1709049;1.1680644;1.1654469;1.163027;1.160781;1.1587622;1.1570576;1.1556913;1.1546454;1.1538934;1.1534297;1.1532693;1.1534615;1.1540492;1.1550646;1.156575;1.1586822;1.1614003;1.1646951;1.1686279;1.1732738;1.1786126;1.1845372;1.1909726;1.1978636;1.2051035;1.2125952;1.2203091;1.2281976;1.2361388;1.2441068;1.2522457;1.2607716;1.2697355;1.2790331;1.2884179;1.297564;1.3059368;1.3128142;1.3177174;1.320612;1.3217715;1.3217111;1.321157;1.3209257;1.3215967;1.3234744;1.3266506;1.3310323;1.3363966;1.3424027;1.3486967;1.3548871;1.3607008;1.3660133;1.3707652;1.374853;1.3782277;1.3809589;1.3831749;1.3851006;1.3868326;1.3883349;1.3896813;1.3910167;1.392416;1.3938894;1.39551;1.3973811;1.3995109;1.4018422;1.4043028;1.4068661;1.4095705;1.4125956;1.4159781;1.4195329;1.4231768;1.4268434;1.4305222;1.4343437;1.4383531;1.4422915;1.4459119;1.4494165;1.4530778;1.4568492;1.460616;1.4644086;1.4683083;1.4723535;1.4765974;1.4811115;1.4859371;1.4911206;1.4966398;1.5025204;1.5088154;1.5154575;1.5223558;1.5293839;1.536427;1.5434287;1.5504866;1.5577595;1.5651929;1.5726658;1.5801846;1.5876595;1.5949411;1.6020231;1.6089923;1.6158018;1.6224158;1.6291214;1.6360985;1.6434302;1.651195;1.6592327;1.6672127;1.6746926;1.6815839;1.6882485;1.6950192;1.7019522;1.7088859;1.7156801;1.7224717;1.7293746;1.7360878;1.7422514;1.7479994;1.7538204;1.7598045;1.765502;1.7706039;1.7752067;1.7793186;1.7830793;1.7868106;1.7903973;1.79368;1.796818;1.7997758;1.8022385;1.8040347;1.8053765
201903CQQU1_ciat_0008_1_20-02_COL2215;COL2215;47.3;6.2;10.2;55.4;1525.5;32565.2;20;368614.7;35033.7;32563.2;100;0.2808051;0.2817108;0.2827423;0.2839517;0.2853073;0.2867975;0.2883657;0.2899075;0.2913558;0.2926532;0.2936477;0.2940927;0.2937883;0.292669;0.2907875;0.2882293;0.2850794;0.281438;0.2774681;0.273352;0.2692302;0.2652839;0.2616431;0.2582997;0.2552265;0.2523639;0.2496719;0.2471217;0.2446672;0.2422418;0.2397949;0.2373809;0.2350129;0.2327059;0.2304901;0.2284127;0.2265145;0.2247994;0.2231586;0.2215454;0.219909;0.2182348;0.2164771;0.2145655;0.2124069;0.2100085;0.207386;0.2045687;0.2015828;0.1984734;0.195219;0.19187;0.1884885;0.1851442;0.1818845;0.1787397;0.1757644;0.1729884;0.1704716;0.1682373;0.1662829;0.1645903;0.1631373;0.1618918;0.1608167;0.1598746;0.159039;0.1582845;0.1575949;0.1569582;0.1563751;0.1558478;0.1553852;0.1549863;0.1546376;0.1543097;0.1539637;0.1535585;0.1530632;0.1524555;0.1517214;0.1508494;0.1498442;0.1487239;0.1475196;0.1462676;0.1450176;0.1438082;0.1426603;0.1415743;0.140555;0.1395947;0.1386738;0.1378189;0.1370325;0.136288;0.1355908;0.1349352;0.134292;0.1336468;0.1329913;0.1322916;0.1315289;0.1306964;0.1298123;0.128905;0.1280026;0.1271364;0.1263314;0.1256063;0.1249733;0.124424;0.1239492;0.1235424;0.1231795;0.1228515;0.1225519;0.1222745;0.1220166;0.1217765;0.1215479;0.1213303;0.1211178;0.1209072;0.1206937;0.1204826;0.1202779;0.1200827;0.1198956;0.1197092;0.1195196;0.1193205;0.1191181;0.1189097;0.1186916;0.1184633;0.1182257;0.1179942;0.1177663;0.1175415;0.1173159;0.1170921;0.1168767;0.116671;0.116478;0.1163008;0.1161385;0.1159897;0.1158593;0.115746;0.1156505;0.1155752;0.1155207;0.1154914;0.1154871;0.1155106;0.1155649;0.1156528;0.1157853;0.1159583;0.1161714;0.1164282;0.1167335;0.1170951;0.1175106;0.1179712;0.11846;0.118952;0.1194154;0.1198286;0.1201824;0.1204714;0.1207009;0.1208809;0.1210193;0.1211232;0.1211971;0.1212458;0.1212651;0.1212512;0.1211984;0.1211086;0.1209911;0.120851;0.1206966;0.1205341;0.1203626;0.1201802;0.1199881;0.119793;0.1195988;0.119408;0.1192233;0.1190453;0.1188721;0.1187037;0.1185381;0.1183758;0.1182174;0.1180644;0.1179223;0.1177968;0.1176974;0.1176288;0.1175952;0.1175981;0.1176393;0.1177256;0.1178657;0.1180649;0.1183296;0.1186668;0.1190822;0.1195692;0.1201105;0.1206755;0.1212244;0.1217231;0.1221429;0.1224855;0.1227615;0.1229838;0.1231684;0.1233318;0.1234827;0.123626;0.1237681;0.1239086;0.1240551;0.1242185;0.1244017;0.1246063;0.1248309;0.1250907;0.1253917;0.1257481;0.1261612;0.1266199;0.1271261;0.1276862;0.1282975;0.1289591;0.1296645;0.1304102;0.1311931;0.1320087;0.1328591;0.1337416;0.1346546;0.1355953;0.1365609;0.13755;0.1385628;0.1395943;0.1406402;0.1417008;0.1427798;0.1438848;0.1450322;0.1462412;0.1475364;0.1489443;0.1504926;0.1522041;0.1540956;0.1561824;0.1584738;0.160976;0.1636977;0.1666595;0.1698981;0.1734618;0.177397;0.1817322;0.1864567;0.1914963;0.1967047;0.2018791;0.2068014;0.2112811;0.2152067;0.2185516;0.2213582;0.2237124;0.2257025;0.2274001;0.228846;0.2300559;0.2310245;0.2317382;0.2321915;0.2323767;0.2322983;0.2319693;0.2314086;0.2306385;0.2296823;0.2285545;0.2272753;0.2258595;0.22432;0.2226706;0.2209225;0.2190884;0.2171779;0.215205;0.2131822;0.2111223;0.2090349;0.2069315;0.2048183;0.2027063;0.2006033;0.1985173;0.1964575;0.1944335;0.1924566;0.1905362;0.1886766;0.186886;0.1851685;0.1835321;0.1819792;0.1805155;0.179144;0.1778603;0.1766634;0.1755527;0.1745293;0.1735906;0.1727353;0.1719657;0.1712856;0.1707015;0.1702216;0.1698514;0.1695923;0.169443;0.1694077;0.1694842;0.169663;0.169939;0.1703064;0.1707788;0.1713573;0.1720365;0.1728046;0.1736454;0.1745406;0.1754701;0.1787109;0.1797584;0.1808539;0.1819955;0.1831976;0.1844349;0.1856601;0.1868893;0.1882316;0.1898056;0.191696;0.1939978;0.196864;0.200479;0.2049793;0.2104169;0.2168109;0.2241872;0.2325241;0.2417005;0.2515106;0.261697;0.2719764;0.2820517;0.2916411;0.3005248;0.3085522;0.3156399;0.3217812;0.3270451;0.3315493;0.3354186;0.3387683;0.341714;0.3443702;0.3468281;0.3491492;0.3513764;0.353547;0.3556946;0.3578352;0.3599712;0.362092;0.3641658;0.3661458;0.3679714;0.3695831;0.3709359;0.3719822;0.3726876;0.3730409;0.3730505;0.3727334;0.3721054;0.3711877;0.3700049;0.3685954;0.3670076;0.3652846;0.3634702;0.3616053;0.3597247;0.357856;0.3560243;0.3542469;0.3525356;0.3509036;0.3493599;0.3479062;0.3465516;0.3453048;0.3441653;0.3431307;0.342194;0.3413451;0.3405755;0.3398795;0.3392571;0.3387113;0.3382427;0.3378519;0.3375416;0.3373112;0.3371598;0.3370959;0.3371328;0.337278;0.3375383;0.3379225;0.3384423;0.3391025;0.3399123;0.3408823;0.342023;0.3433485;0.3448672;0.3465893;0.3485259;0.3506869;0.3530853;0.3557319;0.358643;0.3618372;0.3653281;0.369122;0.3732228;0.3776406;0.3823834;0.3874491;0.3928319;0.3985285;0.4045351;0.4108334;0.4173892;0.424162;0.4311015;0.43816;0.4452843;0.4524196;0.4595155;0.4665143;0.4733639;0.4800256;0.4864801;0.4927351;0.4988176;0.5047708;0.5106509;0.5165282;0.5224906;0.5286398;0.5350921;0.5419849;0.5494592;0.5576516;0.5667064;0.5767971;0.5881805;0.6012232;0.6163319;0.6338062;0.6537092;0.6758654;0.699994;0.7258562;0.7532736;0.7820187;0.8117175;0.8418729;0.8719514;0.90146;0.9299995;0.9572687;0.9830478;1.007189;1.0296099;1.0502913;1.0692763;1.0866573;1.1025443;1.1170418;1.1302329;1.14219;1.1529939;1.1627285;1.1714634;1.1792428;1.1860878;1.192035;1.1971459;1.2014821;1.2051171;1.2081212;1.2105503;1.2124588;1.2138872;1.2148623;1.2153898;1.2154343;1.2149328;1.2138253;1.2120576;1.2095829;1.206392;1.2025187;1.1979991;1.1928666;1.1871797;1.181026;1.1744987;1.1676704;1.1605844;1.1532843;1.145813;1.1381941;1.13044;1.1225729;1.1146364;1.1066649;1.0986724;1.090683;1.082725;1.0748193;1.0669901;1.059263;1.0516503;1.0441624;1.0368152;1.0296198;1.0225794;1.0157037;1.0090003;1.0024645;0.9960911;0.9898863;0.9838692;0.978049;0.972415;0.9669518;0.9616465;0.9564804;0.9514426;0.946537;0.9417692;0.9371334;0.9326105;0.9281877;0.9238642;0.9196351;0.9154774;0.9113708;0.9073271;0.9033719;0.8994868;0.8956273;0.8917836;0.8879648;0.8841696;0.880391;0.8766127;0.8728124;0.8689755;0.8651011;0.8611899;0.8572283;0.8532116;0.8491446;0.8450463;0.8409429;0.8368344;0.8327032;0.8285534;0.8244038;0.8202636;0.8161365;0.8120338;0.8079763;0.8039885;0.8001082;0.7963667;0.7927696;0.7893118;0.785969;0.7827109;0.7795206;0.7763904;0.7733248;0.770328;0.7674071;0.7645695;0.7618192;0.7591541;0.7565763;0.7540915;0.7517039;0.7494147;0.7472183;0.7451122;0.7431077;0.7412237;0.7394816;0.7379119;0.7365416;0.7353886;0.7344722;0.7338171;0.7334644;0.7334628;0.7338566;0.7346855;0.7359749;0.7377178;0.7398697;0.7423602;0.7450976;0.7479739;0.7508657;0.7536412;0.7561767;0.7583776;0.760195;0.7616308;0.7627178;0.7635209;0.7641554;0.7647626;0.7654611;0.7663396;0.7674449;0.7687843;0.7703656;0.7722022;0.7743089;0.7766995;0.7793849;0.7823731;0.7856628;0.7892253;0.7930237;0.7970272;0.8011927;0.8054559;0.8097392;0.8139434;0.8179882;0.8218459;0.8255223;0.8290478;0.8324661;0.83583;0.8391973;0.8426056;0.8460413;0.8494588;0.8527935;0.8559533;0.8588196;0.86128;0.8632495;0.8646874;0.8656019;0.8660221;0.8659866;0.8655375;0.8647254;0.8636209;0.8623073;0.8608536;0.859309;0.8577151;0.8561223;0.8545875;0.8531501;0.8518447;0.8507016;0.8497164;0.8488516;0.8480868;0.8474165;0.8468203;0.846288;0.84584;0.8455043;0.8452934;0.8452225;0.8453207;0.8456364;0.8462424;0.847225;0.8486657;0.8506373;0.8532411;0.8566245;0.8609521;0.8663523;0.8729242;0.8808255;0.8902769;0.9014572;0.9144183;0.9291216;0.9456091;0.9642242;0.9856629;1.0107241;1.03982;1.0726711;1.1085367;1.1467904;1.1873007;1.2302935;1.2759269;1.324048;1.3741603;1.4253376;1.4762428;1.5254906;1.5720754;1.6154442;1.655283;1.6913435;1.7233688;1.7511981;1.7749999;1.7952487;1.8124897;1.8271641;1.8396511;1.8503032;1.8593348;1.8668066;1.872756;1.8773177;1.8806661;1.8829058;1.8840693;1.8841207;1.8830429;1.880893;1.8776455;1.8733594;1.8684478;1.8632543;1.8577116;1.8516726;1.8451593;1.8382418;1.8309648;1.8233581;1.8154395;1.8072497;1.798876;1.7903769;1.7816695;1.7726269;1.7632939;1.7538706;1.744513;1.7351861;1.7257345;1.7160966;1.7063375;1.6965659;1.6868329;1.6771402;1.6675171;1.6579361;1.6483474;1.6387886;1.6293446;1.6200578;1.6109178;1.6019425;1.5931983;1.5847368;1.5765522;1.5686114;1.5608997;1.5534723;1.5463762;1.539541;1.532867;1.526328;1.5200188;1.5140805;1.5085523;1.5033443;1.4983569;1.4935446;1.4889241;1.4845176;1.4803016;1.4762845;1.4724653;1.4688209;1.4653296;1.4619737;1.4587919;1.4558053;1.4529536;1.4502299;1.4476535;1.4451289;1.4425781;1.4400265;1.4375086;1.4350016;1.4324809;1.4299506;1.4274038;1.4248486;1.4222751;1.4196384;1.416926;1.414175;1.411397;1.4085331;1.4055277;1.4023962;1.3991966;1.3959113;1.3925102;1.3890278;1.3855264;1.3819942;1.3784152;1.3747683;1.3709922;1.3670571;1.3629661;1.358736;1.3543651;1.3498942;1.345354;1.3407061;1.3359125;1.3309345;1.3257827;1.3205615;1.315341;1.3100703;1.3046985;1.2992904;1.2939095;1.2885156;1.2831078;1.2777469;1.2724605;1.2672313;1.2620618;1.2569911;1.252084;1.2473323;1.2426922;1.2381362;1.2336195;1.2291362;1.224709;1.2203627;1.216115;1.2119639;1.2078795;1.2039013;1.2000757;1.1963838;1.19275;1.1891286;1.1855543;1.1820648;1.1786834;1.1754129;1.1722276;1.1691406;1.166243;1.1635716;1.1610944;1.1587791;1.1566383;1.1547298;1.1531119;1.1517942;1.1507599;1.1499844;1.1495004;1.1493846;1.1496907;1.1503935;1.1514871;1.15306;1.1552036;1.1579001;1.1611457;1.1650259;1.1695797;1.1747783;1.1805516;1.1868378;1.193593;1.2007591;1.2082512;1.2159475;1.2237313;1.2315707;1.2395308;1.2476702;1.2560573;1.2647579;1.2737954;1.2829207;1.2917055;1.2996585;1.3062249;1.310997;1.3138878;1.3151208;1.3151768;1.3147368;1.3145983;1.3153577;1.3173277;1.3205333;1.3248001;1.3299329;1.3357096;1.3418605;1.3479933;1.3537724;1.3589928;1.3635758;1.3675077;1.3708497;1.3736677;1.3760103;1.3780326;1.3798156;1.3813992;1.3828812;1.3842745;1.3856161;1.3870919;1.3888142;1.3906894;1.3926636;1.3948221;1.397202;1.3998054;1.4026033;1.4055867;1.4087025;1.4119072;1.4152846;1.4188797;1.4226947;1.4266175;1.4304869;1.434245;1.4378905;1.4415187;1.4452066;1.4489162;1.4525555;1.4561294;1.4598601;1.463967;1.4684532;1.4731426;1.477958;1.4831071;1.4886903;1.4945763;1.5006461;1.5068675;1.5132976;1.5199853;1.5269315;1.534019;1.5411577;1.5483594;1.5554843;1.5624143;1.5692903;1.5762173;1.5831909;1.5901569;1.5970718;1.6039736;1.6108205;1.6176172;1.624559;1.631816;1.6391845;1.6464899;1.6538322;1.6611035;1.6681986;1.6751273;1.6818299;1.6882844;1.6946533;1.7010908;1.7075988;1.7141688;1.7208447;1.7275586;1.7340837;1.7403429;1.7463361;1.7519069;1.7570665;1.7619797;1.7665313;1.7706482;1.774331;1.7774444;1.780082;1.7825867;1.7851551;1.7877162;1.7900847;1.7919403
201903CQQU1_ciat_0009_1_20-02_COL2246;COL2246;40.9;4.3;9.1;37.4;1904.1;29896;14.8;415978.6;38536.2;24684.2;81.7;0.2863349;0.2869186;0.2876697;0.288655;0.2898651;0.2913211;0.2929715;0.294665;0.2962905;0.2978023;0.2990742;0.2998439;0.2998708;0.2990676;0.2974891;0.2952255;0.2923618;0.2889935;0.2852732;0.2813816;0.2774767;0.2737648;0.2703916;0.2673436;0.2645691;0.2619821;0.259525;0.2571591;0.2548312;0.2524752;0.2500536;0.2476389;0.2452601;0.2429493;0.2407555;0.2387386;0.2369414;0.2353635;0.2338864;0.2324418;0.2309476;0.2293564;0.2275976;0.225586;0.2232179;0.2204928;0.2174242;0.214046;0.210395;0.206533;0.2024559;0.1982297;0.1939274;0.1896326;0.1854128;0.1813208;0.1774268;0.1737719;0.1704303;0.1674415;0.1648158;0.1625396;0.1605879;0.1589226;0.1574997;0.1562737;0.1552076;0.1542657;0.1534243;0.1526676;0.1519934;0.1514018;0.1509021;0.1504952;0.1501677;0.1498863;0.1496034;0.1492658;0.1488294;0.1482592;0.1475286;0.146617;0.1455259;0.144277;0.1429106;0.1414778;0.1400464;0.1386735;0.1373923;0.1362075;0.135122;0.1341241;0.1331888;0.1323362;0.131562;0.1308357;0.1301621;0.1295354;0.1289243;0.1283104;0.1276825;0.1270045;0.126255;0.125425;0.124533;0.1236098;0.1226876;0.1218024;0.1209841;0.1202538;0.1196246;0.1190885;0.1186355;0.1182574;0.1179275;0.1176351;0.1173729;0.1171346;0.116918;0.1167208;0.1165353;0.1163597;0.1161893;0.1160219;0.1158525;0.115685;0.115522;0.1153659;0.1152149;0.115061;0.114899;0.1147219;0.1145344;0.1143332;0.1141164;0.1138844;0.1136382;0.1133935;0.1131488;0.1129062;0.1126636;0.1124244;0.1121963;0.1119816;0.1117846;0.1116101;0.1114581;0.111328;0.1112246;0.111146;0.1110928;0.1110674;0.1110711;0.1111087;0.1111802;0.1112894;0.1114405;0.1116371;0.1118896;0.1121947;0.1125535;0.1129724;0.1134573;0.1140165;0.1146458;0.1153308;0.116046;0.1167575;0.117426;0.1180238;0.118538;0.1189618;0.1193032;0.1195781;0.1198003;0.1199797;0.1201214;0.120231;0.1203056;0.1203423;0.1203353;0.1202861;0.1202023;0.1200876;0.11995;0.1197968;0.1196295;0.1194478;0.1192524;0.1190491;0.1188418;0.1186337;0.1184281;0.1182263;0.1180272;0.1178313;0.117637;0.1174463;0.1172619;0.1170875;0.116929;0.1167915;0.1166839;0.1166128;0.1165856;0.1166065;0.1166776;0.1168066;0.1170042;0.1172792;0.1176423;0.118104;0.1186701;0.1193302;0.1200592;0.1208158;0.1215484;0.1222136;0.1227783;0.1232446;0.1236272;0.1239443;0.1242165;0.1244633;0.1246951;0.1249174;0.1251368;0.1253535;0.1255753;0.1258132;0.1260708;0.126351;0.1266544;0.1269979;0.1273884;0.1278414;0.1283588;0.1289296;0.1295552;0.1302405;0.1309815;0.1317762;0.1326169;0.1334981;0.1344156;0.1353647;0.136347;0.1373602;0.1384028;0.1394728;0.1405684;0.1416899;0.1428391;0.1440133;0.1452107;0.1464359;0.1476982;0.1490107;0.1503951;0.151875;0.1534791;0.155237;0.1571788;0.1593274;0.1616986;0.1643051;0.167153;0.1702457;0.1735894;0.1772048;0.1811301;0.1854159;0.1901094;0.1952348;0.2007685;0.206613;0.2125912;0.2184671;0.223995;0.2289697;0.2332793;0.2369103;0.2399255;0.2424317;0.2445346;0.2463171;0.2478269;0.2490826;0.2500806;0.2508085;0.2512619;0.251434;0.2513294;0.2509604;0.2503452;0.2495052;0.248463;0.2472325;0.2458335;0.2442804;0.2425859;0.2407635;0.2388247;0.2367826;0.2346473;0.2324334;0.2301541;0.227823;0.2254504;0.2230492;0.2206278;0.218199;0.2157727;0.2133589;0.210969;0.2086143;0.2063081;0.2040609;0.2018791;0.1997726;0.1977478;0.1958151;0.1939789;0.1922462;0.1906211;0.1891005;0.1876848;0.1863749;0.1851727;0.1840766;0.183086;0.1822041;0.1814348;0.1807848;0.1802629;0.1798753;0.1796238;0.1795069;0.1795276;0.179681;0.1799531;0.1803363;0.1808269;0.1814428;0.1821873;0.1830559;0.1840391;0.1851201;0.1862689;0.1874485;0.1903289;0.1916079;0.1929268;0.1942905;0.1957164;0.1971799;0.1986334;0.2000935;0.2016702;0.2034873;0.2056448;0.2082601;0.2115077;0.215589;0.2206477;0.226732;0.2338538;0.2420322;0.251231;0.2612992;0.2719964;0.2830326;0.2940946;0.3048643;0.3150532;0.3244467;0.3329018;0.3403454;0.3467892;0.3523184;0.3570551;0.361127;0.3646581;0.367772;0.3705858;0.3731871;0.3756328;0.377968;0.3802347;0.3824691;0.3846892;0.3868962;0.3890772;0.3912034;0.3932317;0.3951033;0.3967606;0.3981585;0.3992493;0.3999996;0.4003963;0.4004472;0.4001753;0.3996049;0.3987585;0.3976529;0.3963198;0.3948091;0.3931687;0.3914411;0.3896629;0.3878675;0.3860807;0.3843254;0.3826156;0.3809592;0.3793687;0.3778539;0.376417;0.3750661;0.3738069;0.3726403;0.3715698;0.3705902;0.3696925;0.3688716;0.3681218;0.3674434;0.3668418;0.3663184;0.3658747;0.3655182;0.3652545;0.365084;0.3650126;0.3650533;0.3652166;0.3655125;0.3659477;0.3665314;0.3672709;0.3681775;0.3692625;0.3705394;0.3720217;0.3737113;0.3756148;0.3777466;0.38012;0.3827471;0.385638;0.3888068;0.3922691;0.3960379;0.40012;0.4045194;0.4092456;0.414305;0.4196932;0.4254027;0.4314287;0.4377652;0.4443907;0.4512694;0.4583609;0.465612;0.4729686;0.4803732;0.4877685;0.4951009;0.5023096;0.509342;0.5161624;0.5227538;0.529124;0.5353029;0.5413382;0.5472897;0.5532311;0.5592574;0.5654857;0.5720491;0.5790972;0.5867788;0.5952287;0.6045871;0.6150352;0.6268454;0.640398;0.6561097;0.6742811;0.694962;0.717954;0.7429473;0.7696639;0.7978835;0.8273532;0.8576895;0.8883756;0.9188461;0.9485972;0.9772628;1.004602;1.0304377;1.0546324;1.077116;1.0979012;1.117058;1.1346796;1.1508646;1.1657202;1.1793406;1.1917915;1.2031394;1.2134583;1.2228028;1.2312056;1.2386886;1.2452856;1.251049;1.2560277;1.2602761;1.2638625;1.2668576;1.2693146;1.2712609;1.2727154;1.2736851;1.2741301;1.2739797;1.2731795;1.2716999;1.26952;1.2666266;1.2630324;1.2587826;1.2539299;1.2485323;1.2426572;1.2363716;1.2297517;1.2228713;1.2157722;1.2084494;1.2009008;1.1931696;1.1853101;1.1773651;1.1693587;1.1613066;1.1532356;1.145174;1.1371353;1.1291304;1.12119;1.1133575;1.1056604;1.0980968;1.0906632;1.0833688;1.0762229;1.069227;1.0623832;1.0556957;1.0491667;1.0428028;1.0366156;1.0306166;1.0248083;1.0191754;1.0136832;1.008301;1.0030282;0.9978837;0.9928757;0.9879894;0.9832128;0.9785447;0.9739735;0.9694777;0.965049;0.9606956;0.9564209;0.9521985;0.9480076;0.943859;0.9397545;0.9356815;0.9316318;0.9275939;0.9235537;0.9194976;0.9154117;0.9112852;0.9071164;0.902918;0.8986932;0.8944492;0.8901967;0.8859308;0.8816525;0.8773809;0.8731222;0.8688684;0.8646241;0.8604109;0.8562513;0.8521684;0.8481997;0.844369;0.840674;0.8371121;0.8336669;0.8303175;0.8270472;0.8238341;0.8206753;0.8175843;0.8145725;0.8116421;0.8087963;0.8060387;0.8033771;0.8008137;0.7983429;0.7959623;0.7936693;0.791468;0.7893733;0.7873986;0.7855561;0.7838762;0.7823913;0.7811205;0.7800862;0.7793174;0.7788483;0.7787153;0.7789574;0.7796156;0.7807226;0.7822765;0.7842252;0.7864915;0.7889789;0.7915801;0.7941934;0.7967124;0.7990209;0.801024;0.8026819;0.8040054;0.8050247;0.8057972;0.8064295;0.8070564;0.8077884;0.8086989;0.8098224;0.811169;0.8127582;0.8146117;0.8167505;0.8191952;0.8219528;0.825016;0.8283712;0.8319963;0.835867;0.839954;0.844207;0.8485565;0.8529251;0.8572192;0.8613676;0.8653442;0.8691527;0.8728278;0.8764156;0.8799579;0.8834951;0.8870507;0.8906072;0.8941216;0.8975341;0.9007628;0.9036897;0.9061869;0.9081663;0.9096043;0.9105183;0.9109322;0.9108854;0.910427;0.909611;0.9085025;0.907171;0.905677;0.9040758;0.9024206;0.9007618;0.8991535;0.8976415;0.8962666;0.8950571;0.8940061;0.8930712;0.8922299;0.8914896;0.8908412;0.8902699;0.8897891;0.8894279;0.8892076;0.8891515;0.8892895;0.88967;0.8903656;0.8914572;0.8930291;0.8951715;0.8979872;0.9015937;0.9061351;0.9117541;0.9185753;0.9267684;0.936556;0.9481109;0.9614664;0.9765573;0.9934253;1.0124469;1.0343173;1.0597682;1.0891466;1.1221547;1.1580497;1.1961935;1.2364371;1.2789807;1.3239608;1.3711962;1.4201778;1.4700692;1.5196846;1.5677092;1.6131394;1.6555052;1.6946154;1.7302252;1.7620332;1.7899053;1.8140013;1.834682;1.8524079;1.8676789;1.8809803;1.8926368;1.9026878;1.9111376;1.9181948;1.9240271;1.9285727;1.9316869;1.9333467;1.9337665;1.9332222;1.9317412;1.9291072;1.9253101;1.9208211;1.9160595;1.9109174;1.9051161;1.8986845;1.8918931;1.884896;1.8776503;1.8701037;1.8623519;1.854542;1.8465928;1.8382996;1.8296421;1.8207734;1.8118293;1.8028779;1.7938985;1.7848208;1.7756131;1.7662404;1.7567241;1.7471704;1.7376447;1.7281834;1.7188351;1.709594;1.7003926;1.6912408;1.6822599;1.6735187;1.6649559;1.6565068;1.6481994;1.6401013;1.6322734;1.6247249;1.6174198;1.6103277;1.6034358;1.5967978;1.590472;1.5844281;1.5785975;1.5729425;1.5674797;1.562274;1.5573262;1.5525787;1.5480037;1.5435965;1.5393697;1.5353149;1.531443;1.5277737;1.5242648;1.5208607;1.5175557;1.5143671;1.5113161;1.5084178;1.5056183;1.5028168;1.4999499;1.4970746;1.4942713;1.4915106;1.4887214;1.4858993;1.4830823;1.4802554;1.4773942;1.4744623;1.4713969;1.4682157;1.464992;1.4617252;1.4583464;1.4548627;1.4513314;1.4477605;1.4440727;1.4402477;1.4363297;1.4323518;1.4283254;1.4242632;1.4201393;1.4158733;1.4114653;1.4069541;1.4023316;1.397562;1.3926368;1.3875811;1.3824118;1.3771548;1.3718359;1.366449;1.360971;1.3553932;1.3497655;1.3441505;1.3385466;1.3329773;1.3274913;1.3220651;1.3166492;1.311282;1.3060288;1.3009295;1.2959703;1.2911251;1.2863636;1.281661;1.2770655;1.2725911;1.2681774;1.2637961;1.2594845;1.2552713;1.2511854;1.2471962;1.2432741;1.2394515;1.2357538;1.2321752;1.2287111;1.2253623;1.2220972;1.2188926;1.2157786;1.2128034;1.2099648;1.2072877;1.204833;1.2026448;1.2007535;1.1991613;1.1978025;1.1966395;1.1957371;1.1952035;1.1950581;1.1952721;1.1958578;1.1968606;1.1983311;1.2003307;1.2028737;1.2059922;1.2097797;1.2142519;1.2193539;1.2250552;1.2313672;1.2382157;1.2453985;1.2527621;1.2602751;1.2678906;1.2754984;1.2831111;1.2909021;1.2990892;1.3077276;1.3167088;1.3257656;1.3345426;1.3425108;1.3490326;1.3536873;1.3564286;1.357579;1.3577044;1.3573976;1.3572643;1.357892;1.3597474;1.3629196;1.3672235;1.3725154;1.3785709;1.3849719;1.3912365;1.3970782;1.4023333;1.4069378;1.4109108;1.4143128;1.4171958;1.4196557;1.4218841;1.4238377;1.4253561;1.4266028;1.4278913;1.4293678;1.431047;1.4329107;1.4349024;1.4369688;1.4391469;1.4415467;1.444231;1.4470899;1.4501264;1.4534221;1.4568979;1.4604752;1.4641589;1.4679826;1.4718149;1.4755516;1.479275;1.4829538;1.4865254;1.4900675;1.4936916;1.4973648;1.5010041;1.5047531;1.5088154;1.5132241;1.5179013;1.5228002;1.52794;1.5332549;1.5388036;1.5448307;1.5513288;1.5580096;1.5646902;1.5714598;1.5783374;1.5852594;1.5923409;1.5995834;1.6067287;1.6136708;1.6205124;1.6273382;1.6340942;1.6407955;1.6476099;1.6546506;1.6619506;1.669296;1.6764712;1.683568;1.6906815;1.6976228;1.7041737;1.7104852;1.7168038;1.7232853;1.730015;1.737011;1.7440575;1.7507113;1.7568181;1.7627003;1.7685721;1.7742627;1.779706;1.78503;1.7901866;1.7952129;1.8004274;1.805581;1.8100722;1.8138013;1.8168322;1.8191469;1.8210711;1.8232775;1.8260107;1.8286703;1.8306904
201903CQQU1_ciat_0011_1_20-02_CUB74;CUB74;43.7;3.1;7.7;37.4;1012.9;20908;19.9;216554.6;21707.9;20835.5;99.7;0.2554656;0.2564954;0.2576905;0.2590665;0.2605782;0.2622056;0.2639081;0.2656265;0.2673263;0.2689564;0.2703676;0.2713127;0.2715788;0.2710878;0.2698916;0.2680776;0.2657264;0.2629294;0.2598371;0.2566201;0.2534104;0.2503828;0.2476613;0.2452329;0.2430696;0.2411125;0.2393179;0.2376451;0.2360283;0.2343833;0.2326494;0.2308713;0.2290538;0.2272162;0.225403;0.2236771;0.2220951;0.2206803;0.21935;0.2180808;0.2168299;0.2155755;0.2142602;0.2128019;0.211088;0.2090944;0.2067981;0.2041901;0.2012656;0.1980494;0.1945103;0.1906998;0.1866882;0.1825608;0.1783887;0.1742323;0.1701794;0.1662972;0.1626843;0.1593973;0.1564583;0.1538666;0.1516119;0.1496695;0.1480039;0.1465719;0.1453341;0.1442506;0.1432933;0.1424397;0.14168;0.1410092;0.140434;0.1399565;0.1395683;0.1392428;0.138939;0.1386098;0.1382162;0.137723;0.1370969;0.1363064;0.1353434;0.134224;0.1329863;0.131679;0.130368;0.1291098;0.1279368;0.1268509;0.1258541;0.1249358;0.1240724;0.1232842;0.1225696;0.121903;0.121293;0.1207365;0.1202055;0.1196849;0.1191657;0.118614;0.1180098;0.1173416;0.1166207;0.1158673;0.1151043;0.1143632;0.1136724;0.1130528;0.1125165;0.1120555;0.1116616;0.1113301;0.1110381;0.1107783;0.1105451;0.1103321;0.110137;0.1099573;0.1097859;0.109622;0.1094622;0.1093054;0.1091463;0.1089887;0.1088347;0.1086876;0.108547;0.1084066;0.1082616;0.1081057;0.1079452;0.1077778;0.1075998;0.1074105;0.1072111;0.1070175;0.1068278;0.1066421;0.1064564;0.1062733;0.1060994;0.1059366;0.1057881;0.1056576;0.1055444;0.1054468;0.10537;0.1053134;0.1052779;0.1052661;0.1052791;0.1053222;0.105396;0.105504;0.1056497;0.1058357;0.1060722;0.1063553;0.1066858;0.1070694;0.1075121;0.108022;0.1085958;0.1092216;0.1098762;0.1105272;0.1111371;0.11168;0.1121446;0.1125252;0.1128291;0.1130703;0.1132605;0.1134084;0.1135194;0.1136002;0.1136486;0.1136624;0.1136357;0.1135704;0.113475;0.113353;0.1132117;0.1130569;0.1128891;0.1127078;0.112515;0.1123173;0.1121178;0.1119184;0.1117225;0.1115324;0.1113472;0.1111668;0.1109886;0.1108144;0.110647;0.1104905;0.1103509;0.1102326;0.1101426;0.1100855;0.1100673;0.1100926;0.1101645;0.1102902;0.1104794;0.1107392;0.1110797;0.111511;0.1120392;0.1126556;0.1133376;0.1140473;0.1147358;0.1153617;0.1158927;0.116331;0.1166896;0.1169844;0.1172343;0.1174592;0.1176701;0.1178723;0.1180721;0.1182697;0.1184733;0.1186939;0.1189347;0.1191981;0.1194843;0.1198094;0.1201801;0.1206111;0.1211042;0.1216483;0.1222448;0.1228992;0.1236085;0.1243715;0.1251805;0.12603;0.1269158;0.1278335;0.1287849;0.1297674;0.1307792;0.1318179;0.1328812;0.1339678;0.1350781;0.1362087;0.1373568;0.1385249;0.1397195;0.1409509;0.1422393;0.1436068;0.1450804;0.1466885;0.1484603;0.1504188;0.1525799;0.1549565;0.1575553;0.1603796;0.1634351;0.1667411;0.1703333;0.1742597;0.1785651;0.1832743;0.1883692;0.1937645;0.1993004;0.2047599;0.2099145;0.2145694;0.2186159;0.2220359;0.2248833;0.2272544;0.2292459;0.2309347;0.2323654;0.2335559;0.2345029;0.2351943;0.2356256;0.2357902;0.2356931;0.2353463;0.2347679;0.2339793;0.2330028;0.2318517;0.2305454;0.2290982;0.2275223;0.2258307;0.2240337;0.2221435;0.220169;0.2181239;0.2160206;0.2138718;0.2116874;0.209479;0.2072538;0.2050234;0.2027967;0.2005821;0.1983897;0.1962299;0.1941156;0.1920568;0.190059;0.1881306;0.1862772;0.184508;0.1828264;0.1812388;0.1797494;0.1783551;0.1770556;0.175851;0.1747427;0.1737293;0.1728101;0.1719884;0.1712686;0.1706566;0.1701605;0.1697861;0.1695352;0.1694067;0.1694045;0.1695268;0.1697651;0.1701145;0.1705676;0.1711352;0.1718156;0.1726014;0.1734776;0.1744244;0.1754229;0.1764567;0.1798488;0.1810047;0.1822134;0.1834737;0.1847953;0.1861442;0.1874684;0.1887913;0.1902345;0.1919205;0.1939325;0.1963702;0.1993973;0.2032074;0.2079356;0.2136244;0.220286;0.2279413;0.2365567;0.245994;0.256034;0.2664107;0.2768337;0.2870019;0.2966359;0.3055268;0.313537;0.3205924;0.3266951;0.3319198;0.3363845;0.3402177;0.3435416;0.3464699;0.3491092;0.3515459;0.3538384;0.3560299;0.3581611;0.3602664;0.3623625;0.364453;0.3665255;0.3685451;0.3704669;0.3722382;0.3738064;0.3751256;0.3761462;0.376834;0.3771788;0.3771915;0.3768938;0.376305;0.3754457;0.3743373;0.3730152;0.371528;0.3699185;0.3682273;0.3664908;0.36474;0.3629997;0.3612932;0.359636;0.3580351;0.3564987;0.3550339;0.3536458;0.352348;0.3511488;0.3500468;0.349041;0.3481249;0.347291;0.3465329;0.3458437;0.3452238;0.3446795;0.3442126;0.3438223;0.3435113;0.3432819;0.343136;0.3430795;0.3431254;0.3432856;0.3435699;0.3439878;0.3445479;0.3452504;0.3461034;0.3471224;0.3483213;0.3497118;0.3512969;0.3530822;0.3550798;0.3573028;0.3597652;0.3624772;0.3654535;0.3687097;0.3722578;0.3761057;0.3802596;0.384728;0.3895157;0.3946192;0.4000319;0.4057498;0.4117682;0.4180691;0.4246213;0.4313822;0.4382962;0.4453174;0.4523957;0.4594721;0.4664915;0.473401;0.4801571;0.4867255;0.4930832;0.4992315;0.5051988;0.5110317;0.516786;0.522534;0.5283674;0.5343925;0.5407292;0.5475198;0.5549085;0.5630287;0.5720196;0.5820539;0.5933893;0.6063904;0.6214521;0.6388576;0.6586645;0.6807045;0.7046992;0.7303997;0.7576064;0.7860672;0.8153989;0.8451066;0.8746564;0.9035683;0.9314859;0.9581555;0.9833788;1.0070093;1.0289665;1.0492458;1.067904;1.0850308;1.1007276;1.1151025;1.1282463;1.1402246;1.151103;1.160954;1.1698325;1.1777782;1.1848236;1.1910022;1.1963655;1.200968;1.2048659;1.2081144;1.2107729;1.212913;1.2145896;1.2158208;1.2165942;1.2168679;1.2165723;1.2156409;1.2140367;1.2117422;1.2087516;1.2050812;1.2007704;1.1958673;1.1904228;1.1844993;1.1781824;1.1715653;1.164699;1.1576011;1.1502982;1.1428225;1.1352017;1.1274667;1.1196551;1.111798;1.1039169;1.0960302;1.088155;1.0803146;1.0725377;1.064846;1.0572548;1.0497839;1.0424422;1.0352323;1.0281657;1.0212573;1.0145137;1.0079288;1.0015007;0.9952387;0.9891536;0.9832482;0.9775188;0.9719608;0.9665631;0.9613042;0.9561706;0.9511653;0.9462963;0.9415562;0.9369244;0.9323903;0.9279499;0.9236019;0.9193425;0.9151576;0.911037;0.9069828;0.902984;0.8990245;0.8951023;0.8912126;0.8873445;0.883492;0.8796462;0.8757954;0.8719258;0.8680259;0.8640903;0.8601183;0.8561158;0.8520728;0.8479849;0.8438699;0.8397452;0.8356251;0.8315223;0.8274319;0.8233466;0.8192741;0.8152335;0.8112512;0.8073517;0.8035607;0.799897;0.7963659;0.7929662;0.7896767;0.7864734;0.7833408;0.7802644;0.7772517;0.7743108;0.7714385;0.7686368;0.7659204;0.7632961;0.7607633;0.7583212;0.7559719;0.7537144;0.7515375;0.7494396;0.747439;0.7455565;0.7438134;0.7422404;0.7408628;0.7396972;0.7387611;0.7380759;0.737679;0.7376158;0.7379252;0.7386428;0.7397997;0.7413966;0.7433869;0.7456979;0.748234;0.7508814;0.7535239;0.7560517;0.7583611;0.7603637;0.7620118;0.7633151;0.7643176;0.7650877;0.7657284;0.7663584;0.7670815;0.7679807;0.7691002;0.7704439;0.7720178;0.7738402;0.7759326;0.7783117;0.7809818;0.7839363;0.7871647;0.7906454;0.7943617;0.7982967;0.8024011;0.8066009;0.8108218;0.8149729;0.8189765;0.8228022;0.8264546;0.8299693;0.8333935;0.8367746;0.8401586;0.8435728;0.8470039;0.8504099;0.8537248;0.8568569;0.8596842;0.8620929;0.8640167;0.8654385;0.8663614;0.8667928;0.8667696;0.8663453;0.8655771;0.864531;0.8632749;0.8618628;0.8603435;0.858773;0.8572124;0.855709;0.8542894;0.8529883;0.8518417;0.8508584;0.850008;0.8492561;0.8485888;0.8479966;0.8474804;0.8470562;0.8467425;0.8465575;0.846531;0.8466977;0.8471012;0.8478011;0.8488694;0.8503895;0.8524498;0.8551514;0.8586172;0.8629918;0.8684036;0.8749653;0.8828487;0.8922794;0.9034298;0.9163437;0.9309664;0.9473214;0.9657503;0.9869385;1.0116334;1.0401945;1.0723488;1.1074119;1.144794;1.1843544;1.2262952;1.2707696;1.3176318;1.3664002;1.4162198;1.4659181;1.5142574;1.5602479;1.6033245;1.6431901;1.6795539;1.7120862;1.7405456;1.7649994;1.7859011;1.8038418;1.8192359;1.8324542;1.8439558;1.8539979;1.8626326;1.8698063;1.8753722;1.8793911;1.8820879;1.8835095;1.8836131;1.8825147;1.8804066;1.8773928;1.8735499;1.8689599;1.8636518;1.8577068;1.8513461;1.8447659;1.8379092;1.830621;1.8229136;1.8149081;1.8066887;1.7982525;1.7895478;1.7805935;1.7714956;1.7623498;1.753142;1.7437874;1.7342718;1.7246495;1.7149515;1.7051785;1.6953502;1.6854875;1.6756132;1.6657851;1.6560744;1.6465467;1.6372375;1.6281332;1.6191428;1.6101737;1.6012847;1.5926079;1.5842075;1.5760725;1.5681674;1.5604782;1.5530522;1.545975;1.5392425;1.5327421;1.5263996;1.5202632;1.5143787;1.5087304;1.5033165;1.4981656;1.493268;1.4886146;1.484215;1.4800419;1.4760782;1.4722867;1.4686048;1.4650118;1.4615558;1.4583111;1.455268;1.4523005;1.4493098;1.4463739;1.4436131;1.4409842;1.4383578;1.4357088;1.4330922;1.4305453;1.4280277;1.4254353;1.4227395;1.4199904;1.4172224;1.4144117;1.4115251;1.4085648;1.405516;1.4023585;1.399121;1.3958509;1.3925149;1.3890646;1.3854985;1.381863;1.378165;1.3743984;1.3705828;1.3667271;1.3628016;1.3587434;1.3545349;1.3501742;1.345664;1.3410192;1.3362474;1.3313348;1.3262833;1.3211513;1.3159835;1.3107677;1.3054719;1.3000858;1.2946705;1.2893012;1.2839608;1.2786119;1.2732604;1.2679465;1.2627244;1.2576191;1.2526014;1.2476845;1.242892;1.2382224;1.2336569;1.2291756;1.2248037;1.220541;1.2163347;1.2121505;1.2080073;1.2039256;1.1999571;1.1961266;1.1924336;1.1888646;1.1853709;1.1819147;1.1785063;1.1751995;1.1720023;1.1688852;1.1658863;1.1630962;1.160498;1.1580296;1.1556907;1.1535301;1.1516027;1.1499541;1.148591;1.1474961;1.1466608;1.1461245;1.1459351;1.1461289;1.1467028;1.1476738;1.1491218;1.1511223;1.1536667;1.156765;1.1605027;1.1648957;1.1698849;1.1754313;1.1815463;1.1881709;1.1951499;1.202373;1.2098057;1.2173729;1.224959;1.2325914;1.2403952;1.2484798;1.2568891;1.2656415;1.2745507;1.2832248;1.2910724;1.2974156;1.3018564;1.3043995;1.305347;1.3052249;1.3047142;1.3045752;1.3053663;1.3073375;1.3104478;1.3145833;1.3196769;1.3254936;1.3316462;1.3376942;1.343348;1.3484781;1.3530376;1.3570192;1.3605115;1.363524;1.3659605;1.3679662;1.3697417;1.3713284;1.372757;1.3740636;1.3753338;1.376749;1.3784354;1.3803649;1.3824543;1.38467;1.3870449;1.3896655;1.3925042;1.3955135;1.3986745;1.4019953;1.4055063;1.4091008;1.4127285;1.4164386;1.4202507;1.424124;1.4279199;1.4315538;1.4350973;1.4387063;1.4424115;1.4461389;1.4499888;1.4541137;1.458509;1.4631336;1.4679923;1.4730923;1.4783852;1.4839475;1.4899735;1.4964747;1.5032051;1.5098666;1.5164433;1.5230772;1.5298249;1.5367105;1.5437638;1.550997;1.5583059;1.565459;1.5724127;1.5792499;1.5860391;1.592862;1.5997114;1.6065948;1.6134936;1.6203921;1.6272593;1.6341376;1.6412003;1.6484023;1.6556181;1.6627139;1.6696141;1.6764278;1.6830627;1.6892817;1.6953831;1.7018442;1.70859;1.7152593;1.7216884;1.7278876;1.7338152;1.7392769;1.7442298;1.7489572;1.7534904;1.7577643;1.7617617;1.7652901;1.7684817;1.7715808;1.7742705;1.7761681;1.7776024;1.7791572
201903CQQU1_ciat_0012_1_20-02_GUA24;GUA24;35.7;3.6;8.1;37.5;1296.2;20536.9;15.6;286809.7;25127.3;18490.5;91.3;0.2873755;0.2877899;0.2883383;0.2890415;0.289852;0.2907883;0.2918329;0.2928894;0.2938865;0.2947968;0.2955289;0.2958734;0.2956227;0.2946908;0.2931167;0.2909794;0.2883681;0.2853818;0.2821507;0.278809;0.2754639;0.2722831;0.2693941;0.2667813;0.2643963;0.2621622;0.2600412;0.2580153;0.2560369;0.2540359;0.2519754;0.2499251;0.2478994;0.2459128;0.2440009;0.2422132;0.2405902;0.2391394;0.2377567;0.2363919;0.2349825;0.2334982;0.2318821;0.2300617;0.2279468;0.225543;0.2228591;0.219917;0.2167361;0.2133512;0.2097298;0.2059168;0.2019734;0.1979706;0.1939597;0.189983;0.1861126;0.1824009;0.1789329;0.1757575;0.1728975;0.1703562;0.1681261;0.1661846;0.1645003;0.1630367;0.1617624;0.1606451;0.1596599;0.1587834;0.1580036;0.1573118;0.1567102;0.1561955;0.1557531;0.1553523;0.1549528;0.1545129;0.1540017;0.1533976;0.1526847;0.1518477;0.1508877;0.1498208;0.1486775;0.1474923;0.1463142;0.1451838;0.1441249;0.1431382;0.142228;0.1413865;0.1405933;0.139872;0.139223;0.1386205;0.1380706;0.1375667;0.1370793;0.1365949;0.1361071;0.1355826;0.1350011;0.1343514;0.1336464;0.1329087;0.1321615;0.1314346;0.1307557;0.130146;0.129618;0.1291638;0.128775;0.128447;0.1281574;0.1278987;0.1276648;0.1274495;0.1272512;0.127069;0.1268965;0.1267321;0.12657;0.1264069;0.1262375;0.1260667;0.1258982;0.1257356;0.1255766;0.1254127;0.1252387;0.1250478;0.1248457;0.1246291;0.1243952;0.1241446;0.123879;0.1236151;0.1233518;0.1230912;0.122831;0.1225749;0.1223308;0.1221013;0.12189;0.1217006;0.121533;0.1213867;0.1212676;0.1211746;0.121108;0.1210698;0.1210613;0.1210875;0.1211493;0.1212507;0.1213949;0.121585;0.1218319;0.1221322;0.1224866;0.1229005;0.1233801;0.1239338;0.1245574;0.1252369;0.1259458;0.1266479;0.1273007;0.1278748;0.1283567;0.1287419;0.1290413;0.1292726;0.1294504;0.129586;0.129686;0.1297578;0.1297997;0.1298099;0.1297823;0.1297169;0.1296207;0.1294971;0.1293541;0.1291984;0.1290296;0.1288458;0.1286478;0.1284424;0.1282334;0.1280237;0.1278172;0.1276154;0.1274172;0.1272224;0.1270285;0.1268372;0.1266522;0.1264787;0.1263236;0.1261916;0.1260903;0.1260249;0.1260023;0.126027;0.1261026;0.1262373;0.126442;0.1267256;0.1270998;0.1275759;0.128159;0.1288376;0.1295849;0.130358;0.1311029;0.1317745;0.132339;0.1327996;0.1331728;0.1334777;0.1337351;0.1339657;0.1341815;0.1343884;0.1345927;0.1347936;0.1349984;0.1352172;0.1354533;0.1357095;0.1359864;0.1363007;0.1366589;0.1370758;0.1375527;0.1380784;0.1386534;0.1392825;0.1399621;0.1406908;0.1414605;0.1422653;0.1431015;0.1439656;0.1448608;0.1457856;0.1467385;0.1477184;0.1487255;0.1497622;0.1508323;0.1519355;0.1530734;0.1542541;0.1554904;0.1567986;0.1582029;0.1597292;0.161407;0.1632659;0.1653341;0.1676317;0.1701698;0.1729565;0.1759933;0.1792796;0.1828184;0.1866286;0.1907478;0.1952285;0.2001196;0.2054463;0.2111831;0.217227;0.2233909;0.2294246;0.235068;0.2401045;0.2444178;0.247997;0.250913;0.2532831;0.2552231;0.2568248;0.2581418;0.2591969;0.259989;0.2605076;0.2607502;0.2607119;0.2604001;0.2598292;0.2590192;0.2579924;0.2567711;0.2553691;0.2538063;0.2520973;0.2502552;0.2482934;0.2462224;0.2440549;0.2418003;0.2394724;0.2370839;0.2346483;0.2321765;0.2296813;0.2271713;0.2246597;0.2221565;0.2196723;0.2172186;0.2148066;0.2124491;0.2101568;0.2079362;0.2057973;0.2037461;0.2017925;0.1999408;0.1981983;0.1965697;0.1950522;0.1936462;0.1923525;0.1911727;0.1901054;0.1891502;0.1883104;0.1875891;0.1869922;0.1865276;0.1862013;0.186014;0.1859637;0.186054;0.1862827;0.1866395;0.1871171;0.1877066;0.1884197;0.189258;0.190217;0.1912841;0.1924392;0.1936569;0.1949107;0.1981029;0.1994763;0.2008936;0.2023552;0.203878;0.2054365;0.2069833;0.2085355;0.2102085;0.2121355;0.2144213;0.2171821;0.2205936;0.2248635;0.2301398;0.2364702;0.2438647;0.252336;0.2618358;0.2722001;0.2831776;0.2944667;0.3057393;0.3166606;0.3269283;0.3363183;0.3446892;0.3519801;0.3582139;0.3634841;0.367928;0.3716896;0.3749011;0.3776907;0.3801799;0.3824599;0.3845906;0.3866209;0.3885972;0.3905553;0.3925114;0.3944712;0.3964245;0.3983336;0.4001479;0.4018132;0.4032809;0.4045095;0.4054497;0.4060665;0.4063491;0.4063087;0.4059702;0.405358;0.4044954;0.4034008;0.4021054;0.4006548;0.3990908;0.3974499;0.3957644;0.394063;0.3923693;0.3907063;0.3890852;0.3875082;0.3859865;0.3845321;0.3831471;0.3818409;0.380622;0.3794904;0.3784478;0.3774896;0.3766084;0.3758023;0.3750708;0.3744156;0.3738405;0.373348;0.3729413;0.3726277;0.3724127;0.3722979;0.3722895;0.3724003;0.3726409;0.3730209;0.3735498;0.3742386;0.375091;0.376116;0.3773258;0.3787299;0.3803388;0.3821582;0.3841967;0.3864655;0.388975;0.3917391;0.3947673;0.3980715;0.4016674;0.4055704;0.4097878;0.4143213;0.4191785;0.4243668;0.4298815;0.4357122;0.4418516;0.4482935;0.4550198;0.4619963;0.4691753;0.4764985;0.4839201;0.4913894;0.4988449;0.5062273;0.5134777;0.5205489;0.5274093;0.5340438;0.5404583;0.5466752;0.5527387;0.558717;0.5646987;0.5707877;0.5771011;0.58377;0.5909435;0.5987712;0.6073967;0.6169734;0.6276878;0.6398071;0.6537017;0.6697714;0.6882985;0.7093222;0.7326375;0.7579255;0.7848998;0.8133228;0.8429134;0.8732765;0.9039031;0.9342294;0.9637518;0.9921086;1.0190511;1.0443976;1.0680282;1.089886;1.1099865;1.1284103;1.1452775;1.1607094;1.1748118;1.1876724;1.199362;1.209946;1.2194929;1.2280717;1.2357475;1.2425621;1.2485371;1.2537079;1.2581284;1.2618665;1.2649822;1.2675366;1.2695999;1.2712095;1.2723588;1.2730247;1.2731681;1.2727411;1.2717061;1.270026;1.2676575;1.2645735;1.2607853;1.256335;1.251289;1.2457237;1.2396945;1.233252;1.2264774;1.2194512;1.2122276;1.2048262;1.1972432;1.1894863;1.181581;1.1735756;1.1655219;1.1574414;1.1493425;1.1412507;1.1331978;1.1251945;1.1172519;1.1093996;1.1016624;1.0940491;1.0865707;1.0792385;1.0720567;1.0650277;1.0581493;1.0514154;1.044838;1.0384375;1.0322149;1.0261579;1.0202606;1.0145209;1.0089333;1.0034904;0.9981815;0.9929956;0.9879262;0.9829643;0.9781101;0.9733629;0.9687095;0.9641408;0.959652;0.9552369;0.9508969;0.9466131;0.942356;0.9381355;0.9339728;0.9298636;0.9257931;0.9217406;0.9176856;0.9136125;0.9095144;0.9053929;0.9012427;0.897068;0.8928705;0.8886544;0.8844343;0.8802186;0.8760119;0.87182;0.8676378;0.8634616;0.859301;0.8551751;0.8511087;0.8471271;0.8432641;0.8395444;0.8359655;0.8325208;0.8291928;0.8259544;0.8227879;0.8196868;0.8166538;0.8136867;0.810785;0.8079572;0.8052156;0.802565;0.8000063;0.7975403;0.7951685;0.7928922;0.7907059;0.7886044;0.7865935;0.7846931;0.7829297;0.7813331;0.7799298;0.778737;0.7777681;0.7770379;0.7765785;0.7764355;0.7766551;0.7772771;0.778326;0.7797949;0.7816366;0.7837818;0.7861435;0.7886229;0.7911201;0.793532;0.7957537;0.7976993;0.799324;0.8006358;0.8016728;0.8024948;0.8032017;0.8039192;0.8047476;0.8057563;0.8069831;0.8084348;0.81012;0.8120571;0.8142698;0.8167782;0.8195869;0.8226876;0.8260711;0.8297178;0.8336054;0.837715;0.8420012;0.846387;0.8507935;0.8551424;0.8593724;0.8634517;0.8673739;0.8711686;0.8748783;0.8785377;0.8821764;0.8858224;0.8894795;0.8931106;0.8966358;0.8999572;0.9029665;0.9055629;0.907677;0.9092826;0.9103802;0.9109771;0.9111099;0.9108397;0.910228;0.9093317;0.9082138;0.9069347;0.9055432;0.9040859;0.902616;0.9011911;0.8998526;0.8986276;0.8975426;0.8966103;0.8958105;0.8951251;0.8945472;0.8940586;0.8936547;0.8933527;0.89317;0.8931226;0.8932434;0.8935767;0.894178;0.895125;0.896495;0.8983464;0.9007474;0.9038147;0.9076937;0.9125346;0.9184678;0.9256037;0.9341026;0.9441915;0.9560585;0.969747;0.9851907;1.0024065;1.021732;1.0438619;1.0695602;1.099175;1.1323729;1.1684065;1.2066624;1.2469662;1.2894619;1.3342735;1.3812518;1.4299163;1.4794618;1.5287322;1.5763934;1.6214197;1.6633638;1.7020822;1.7373579;1.768945;1.7967694;1.8208611;1.841409;1.8589416;1.8740735;1.8871813;1.8984201;1.9078918;1.9158313;1.9224926;1.9278883;1.9319439;1.9346659;1.9360664;1.9361656;1.9350964;1.9329814;1.9297979;1.9256747;1.9210173;1.9159615;1.9103221;1.9041026;1.8974639;1.8904607;1.8831036;1.8754742;1.8676441;1.8595567;1.8511932;1.8426814;1.8340839;1.8253356;1.8164206;1.8073306;1.79799;1.7884322;1.7788677;1.7694335;1.7600384;1.7505779;1.7410495;1.7314806;1.7219385;1.7124896;1.70314;1.693876;1.6847048;1.6756396;1.6667275;1.6580477;1.6496232;1.6414222;1.6334153;1.6256248;1.6180574;1.6106768;1.6035285;1.5967128;1.5902452;1.5839996;1.577847;1.5717945;1.5659673;1.5604827;1.5553581;1.5504922;1.5457842;1.5412171;1.5368078;1.5325973;1.5285752;1.5246763;1.5208826;1.5172391;1.513783;1.5104759;1.5072355;1.5040622;1.5010333;1.4981518;1.4953629;1.4926076;1.4898303;1.4869893;1.4841088;1.481268;1.4784722;1.4756422;1.4727142;1.4696925;1.4666004;1.4634566;1.4602818;1.4570606;1.4537675;1.4503863;1.4469053;1.4433122;1.439662;1.4359982;1.4322556;1.4283506;1.4243436;1.4203272;1.4162838;1.4121276;1.4077989;1.4033387;1.3987908;1.3941677;1.3894477;1.3845911;1.3795915;1.3744613;1.3692257;1.3639081;1.3585374;1.3531435;1.3477188;1.3422801;1.3368689;1.3314683;1.3260659;1.3206642;1.315262;1.309899;1.3046482;1.2995303;1.2945471;1.2896941;1.2849915;1.28045;1.2760168;1.2716513;1.2673227;1.2630152;1.258763;1.2546149;1.2505749;1.2466636;1.2428603;1.2391064;1.2353957;1.231792;1.2283429;1.2250243;1.2218019;1.2186528;1.2155759;1.2126034;1.2098027;1.2071939;1.2047669;1.2025172;1.2004579;1.1986254;1.197051;1.1957424;1.1947336;1.1940314;1.1935928;1.1934156;1.1936057;1.1942427;1.195336;1.1968851;1.1988912;1.2013482;1.2043241;1.2079232;1.2121625;1.2170286;1.2225051;1.2285471;1.2350342;1.2418253;1.2488663;1.2561297;1.2635374;1.2709959;1.278488;1.2860961;1.2940166;1.3023691;1.3110857;1.3198645;1.3283248;1.3359954;1.3423024;1.3468615;1.3496463;1.3509078;1.3511071;1.3508487;1.350817;1.3515639;1.3534667;1.356652;1.3609827;1.3662348;1.3721286;1.3783553;1.384572;1.3904727;1.3957689;1.4003556;1.4043248;1.4078418;1.4109584;1.4135884;1.4157653;1.4175597;1.4190724;1.4205483;1.4221699;1.4239454;1.4258624;1.4279389;1.4300989;1.4322364;1.4344153;1.4367845;1.439422;1.4423232;1.4455528;1.4490131;1.4524698;1.4559481;1.4595866;1.4634625;1.4674726;1.4714284;1.4753058;1.4791545;1.4829748;1.4866537;1.4901241;1.4935457;1.4971503;1.5010681;1.5052998;1.5097368;1.5142543;1.5189618;1.5241015;1.5295813;1.5351366;1.5407612;1.5467639;1.5534232;1.560575;1.5678091;1.5748034;1.5815189;1.5882137;1.5951045;1.6021719;1.6092772;1.6162738;1.6232094;1.6301329;1.6370552;1.6440803;1.651118;1.6580249;1.6647773;1.6716212;1.6789021;1.6865337;1.6940836;1.7012391;1.7080939;1.7148507;1.7215712;1.7281399;1.734427;1.7405912;1.7469577;1.7534554;1.7597135;1.76564;1.7714628;1.7775841;1.7840049;1.7899952;1.7950283;1.7994268;1.8035071;1.8072662;1.8108127;1.8142188;1.8172655;1.8197461;1.8219588;1.8243264;1.8266993;1.828706
